Time,Force,Position
11.409992000000017,0.33530822506209945,0.009435721294565547
11.412436000000014,0.37123263626242503,0.018200061500875716
11.41487600000002,0.4114842183218094,0.027360096878891578
11.417316,0.46146297314381923,0.036785888201935735
11.419772000000023,0.5300612474456567,0.04594784445779211
11.42221600000002,0.6078276160026791,0.05504971829836157
11.424660000000015,0.7004435158300419,0.06397732432291095
11.427112000000022,0.8118206006219612,0.07253185314449495
11.42956000000001,0.9357655766840839,0.08117967140555095
11.432007999999996,1.0698098125611695,0.08998985232925082
11.434452000000022,1.2221014808657455,0.09860525059839598
11.436892,1.3867287230150476,0.10709015038863874
11.439340000000016,1.5590357112101845,0.11561500237651377
11.44179600000001,1.7425601162351658,0.12420823017974546
11.444240000000008,1.9359042418213894,0.13286373149351324
11.446684000000005,2.154992346141573,0.14122067186286155
11.449120000000022,2.378129977924965,0.14956247788263952
11.451568000000009,2.6034113759395026,0.15777742385563148
11.454012000000006,2.832700767162612,0.16575773958537832
11.456456000000005,3.0504950981600265,0.17364852940335287
11.4589,3.248366657065497,0.1721509126869735
11.461336000000015,3.427431705036036,0.17140901668746802
11.463792000000012,3.5988170069607404,0.17036354940561582
11.46623600000001,3.7659223598546294,0.16896372082270533
11.468683999999996,3.9173886814031293,0.16777884331207238
11.471136,4.058243886457468,0.16656256559762025
11.473579999999998,4.188021444308823,0.16546264225128576
11.476036000000022,4.3016915442480945,0.16481490782072974
11.47848000000002,4.412757034821005,0.16397408331827856
11.480931999999996,4.518379093377843,0.1628794297637932
11.483380000000013,4.606964424320689,0.16197707005384976
11.485832000000016,4.683074411791949,0.16122750811244924
11.488276000000011,4.752947675456352,0.1604428485509813
11.49071600000002,4.812115378970106,0.15965442320013754
11.49315200000001,4.856947303750588,0.1588421670767465
11.495596000000006,4.875710384573015,0.15837293274190264
11.498036000000011,4.884512079349469,0.1579592837900058
11.50048000000001,4.889449342259951,0.15765524289802488
11.502924000000007,4.886470749983382,0.15762267992755138
11.505368000000004,4.886145884759287,0.15753888386818163
11.50782000000001,4.892339178453641,0.15731131604258305
11.510260000000017,4.902489451812586,0.15703295955918115
11.512708000000003,4.925024416702369,0.1564726919653594
11.515152,4.9502131086446255,0.15588485005637162
11.517616000000004,4.973771786892805,0.1553710579443456
11.52006400000002,4.990904854021151,0.15503976232057015
11.522503999999998,5.009433721560232,0.15476415534855467
11.524952000000011,5.0308958554055065,0.15441499270799094
11.52739600000001,5.047330074399554,0.1541473935734808
11.529843999999995,5.061949184102287,0.1538699870354122
11.532288000000024,5.076335976379543,0.15355783670979023
11.534728,5.088720667910381,0.15329027460663083
11.537171999999998,5.104969791307193,0.15294283886834242
11.539615999999995,5.133650828063085,0.15229781302256773
11.542056000000002,5.165824209632615,0.15154646663746316
11.5445,5.202745966799654,0.15074100136484272
11.546948000000016,5.247209596243536,0.14984105409811294
11.549380000000014,5.294606491993614,0.14889694160705003
11.551836000000009,5.346334350318489,0.14780347594241958
11.554276000000016,5.388471013791859,0.14690920646744318
11.556716000000025,5.425253001332036,0.14615543690540814
11.55916000000002,5.464037089618632,0.14535725366152982
11.561616000000017,5.495930931934442,0.1446867852675803
11.564056000000022,5.521633376413766,0.1440734642302725
11.566508,5.546963733840753,0.14343170199509986
11.568951999999996,5.578952019813049,0.14266148145248939
11.57139600000002,5.613361715412343,0.1418333955532891
11.573836,5.651403525452133,0.1409151166522969
11.576279999999995,5.687210917320027,0.1400062259697924
11.578724000000022,5.717104554747289,0.1392609003709814
11.58115600000002,5.745181187025368,0.13863433955533602
11.583612000000016,5.7788448126621175,0.13791273648561414
11.586056000000012,5.810833098634413,0.13718132410861153
11.58850000000001,5.826712030836757,0.13673691479443933
11.590952000000016,5.84082117971816,0.13636506035745502
11.593396000000013,5.85730451639832,0.1359799696635831
11.595844,5.8695513341601675,0.13564433350692306
11.598287999999997,5.8754669844586696,0.13535244996510493
11.600736000000012,5.872582835838587,0.13521420508408585
11.603180000000007,5.872584731696457,0.13507280209457215
11.605624000000006,5.8768231464726375,0.1348867399046503
11.608068000000005,5.882412035689177,0.1346608797934137
11.610512,5.881622535614129,0.13452518851830417
11.612952000000009,5.8785041737107,0.1344950628285387
11.615396000000004,5.8778525474046415,0.13449088422616712
11.61784,5.877992317031502,0.13448176149350205
11.620283999999998,5.876037438113328,0.13446879902208878
11.622732000000012,5.866773004343788,0.13455457699324408
11.625168000000002,5.86081392393278,0.13461269693168723
11.627620000000007,5.8625837072537195,0.13454584944383563
11.630064000000004,5.870918871321351,0.134336402885573
11.632504000000012,5.87650776053789,0.13412027730697948
11.634948000000009,5.875671038634598,0.13403640807235948
11.637400000000014,5.8807933971423125,0.13389429559353355
11.639848,5.8902920441952,0.13370485628909348
11.642296000000016,5.894483237143136,0.13357676302091567
11.644732000000005,5.89616047266546,0.13347046844171226
11.647176000000002,5.900583983038873,0.1333733698253086
11.64962,5.910826804196434,0.13322675827549224
11.652063999999996,5.924561970167633,0.13299469719759005
11.65450800000002,5.935271322034018,0.1327714400164252
11.65694400000001,5.94225601166129,0.13260296961271573
11.659400000000003,5.952266515393375,0.13242388557926724
11.661840000000012,5.967631695058652,0.13213389892238345
11.66428400000001,5.984254801365672,0.13176580004627178
11.666736000000014,5.995151144687158,0.13148618506788845
11.669180000000011,6.000553042448594,0.1313262702176363
11.671636000000008,6.008980754314842,0.1311568612967642
11.674080000000004,6.0186191709945875,0.130959622626832
11.67652000000001,6.022530824688805,0.1308503805729823
11.678964000000008,6.021786650584129,0.13080625371833102
11.68142400000002,6.021414563531794,0.13078421546815266
11.683868000000018,6.0251864475991495,0.1306847783351772
11.686316000000003,6.029517410173947,0.13055123753245076
11.688760000000002,6.033755824950127,0.1303811487030188
11.691204,6.0437210027118375,0.1301285489521433
11.693644000000006,6.058342008272439,0.12981549321510233
11.696088000000003,6.070076969355089,0.12950088379170205
11.698532,6.081579613012262,0.12915840768026693
11.700968000000016,6.089869451109518,0.12887730583069296
11.703424000000012,6.102535577751946,0.1285536711299269
11.70586400000002,6.1169242658870715,0.12821459728256548
11.708308000000017,6.131592493275916,0.12785804059994815
11.710760000000022,6.140906044731567,0.12760504641355686
11.71320400000002,6.151243309545615,0.12738154971779006
11.715655999999996,6.167586876598914,0.1270621888666732
11.718096000000005,6.185141148465711,0.12670927934194906
11.72053600000001,6.205396369213226,0.12628639257527396
11.722983999999997,6.220296914027549,0.12596587293381672
11.725428000000022,6.237059789961429,0.12562003281182701
11.72787200000002,6.256616162574642,0.12524013657191793
11.730316000000016,6.273379038508522,0.12489490695608989
11.732752000000003,6.28958283593496,0.1245847783664412
11.735196000000002,6.3021545189209025,0.12435954748159472
11.737636000000007,6.30895221709307,0.12426076486620269
11.740080000000006,6.313096188212764,0.1241896010801558
11.74254000000002,6.312304792279847,0.12419287614446733
11.744984000000017,6.313468275265102,0.12421115924181537
11.747440000000012,6.313141514183139,0.12427395695383277
11.74988000000002,6.318029659407507,0.12424659067669962
11.752324000000016,6.316259876086567,0.12430755913481183
11.754768000000013,6.312907300899792,0.12437484911338195
11.757216,6.3118363657131535,0.12439437881142325
11.759659999999997,6.309182638660678,0.1244207658707032
11.762112000000002,6.300150522316614,0.12452026615955988
11.76454800000002,6.284180938173524,0.12472645968843407
11.766992000000016,6.271936016269544,0.12488605451052899
11.769436000000011,6.254336418432374,0.12514399544245122
11.77188000000001,6.238087295035562,0.12536760627323465
11.774324000000007,6.22183817163875,0.12559121710401805
11.776759999999996,6.202655781935745,0.12585721341120204
11.77920400000002,6.185475492979154,0.1260926303853635
11.781644,6.168342425850806,0.12627974831674343
11.784087999999995,6.155772638722734,0.12637038604840106
11.786540000000002,6.142690994915463,0.12645003664076984
11.788988000000018,6.129329811854473,0.12654612758925057
11.791440000000025,6.116527707300922,0.12660954004496897
11.79388400000002,6.105495386068312,0.12660928112040762
11.796323999999998,6.096093078529781,0.1265547409961398
11.798767999999995,6.083617735058194,0.12655066192498865
11.80121600000001,6.079430333825996,0.12640442825093876
11.803663999999998,6.077896659646271,0.1262324362715362
11.806108000000023,6.075292050279909,0.12608063835873873
11.808544000000012,6.080556074272353,0.1258149620777881
11.810988000000007,6.091826400504049,0.12545685046200594
11.813428000000016,6.108311633042077,0.12500748301651343
11.815876000000005,6.121351742594712,0.12458724054250503
11.81831600000001,6.135602556960846,0.12413641150082948
11.820752,6.1529264072600345,0.12363731393533464
11.823208000000022,6.171740501626442,0.12309643224446952
11.825648,6.188971804127015,0.12255764163843877
11.828088000000008,6.207274041814227,0.12200153222748682
11.830535999999997,6.219942064314523,0.12155570925595456
11.832988,6.231539151628184,0.12113335129898675
11.835431999999996,6.248490914875036,0.12061451382703774
11.837884000000004,6.266793152562246,0.12006198679392643
11.84032000000002,6.289611448421488,0.11946592680597237
11.842764000000017,6.308285773161037,0.11894015304020003
11.845203999999995,6.324678457900447,0.11846230939795374
11.84765200000001,6.341350681893577,0.11796942051592059
11.850092000000018,6.352807999580376,0.11756656248860954
11.852528000000008,6.36189112946842,0.1171727250673395
11.854976000000022,6.3671098274904905,0.11682780280543383
11.857416,6.366461992900171,0.11656248012560838
11.859864000000016,6.364882992750074,0.1163087132207479
11.862312000000005,6.365166323719533,0.11603671217383595
11.864760000000018,6.367451755435408,0.11573650455192114
11.867208000000003,6.372018827151422,0.11539342174183548
11.869648000000012,6.372861236628322,0.11509016686644553
11.87209200000001,6.3755659772247775,0.11477024996242806
11.874536000000006,6.385347955247123,0.11435476851913778
11.876984000000022,6.395409472523189,0.11392659620721762
11.87942800000002,6.413758932038642,0.11337631042814546
11.881872000000016,6.429734203755341,0.11283202045823974
11.884304000000014,6.440494569165709,0.11236546844078482
11.886752,6.447390502710102,0.11194287163556133
11.889192000000008,6.449770378082464,0.1115595889091715
11.891639999999995,6.454292123828102,0.11114202734008216
11.89408400000002,6.4610955095738785,0.11068410703594779
11.89652000000001,6.4697612264392115,0.11021096329227145
11.898980000000025,6.476844151438708,0.10973798959890126
11.901420000000002,6.485370098677182,0.10927114234492534
11.903860000000009,6.498040017035348,0.10874520388810872
11.906304000000006,6.515924841699847,0.10814724892318181
11.908756000000013,6.533809666364346,0.10755351734815094
11.911200000000008,6.546898893603093,0.10701301310008417
11.913644000000003,6.561710682334539,0.10646631693914647
11.916080000000022,6.575311766252484,0.10594564611337294
11.91852400000002,6.5915665772229035,0.10540789954725548
11.920963999999998,6.602886021140711,0.10492894796096762
11.923412000000011,6.609781954685103,0.10452387307584196
11.92585200000002,6.616538118602637,0.1041285600650245
11.928288000000007,6.6190105417736165,0.10379552757300645
11.930744000000004,6.625719483862906,0.10344696028224747
11.93319200000002,6.637224023377948,0.10305253670968158
11.935636000000017,6.653524160318743,0.10261286477098312
11.938088000000022,6.671546858752233,0.10216489663882997
11.94053200000002,6.685285816439168,0.10177431190958988
11.942983999999996,6.697674299685746,0.10141508923548645
11.945424000000004,6.709131617372544,0.10106653400542469
11.947872000000018,6.724685684350794,0.10070925851881973
11.950320000000003,6.7385171898363465,0.10036039914110778
11.95276800000002,6.753000321627958,0.10002179922968003
11.955212000000015,6.762128777486377,0.09975691973914916
11.957651999999996,6.768975593344659,0.0995283192710787
11.96009600000002,6.775403100322358,0.0993198219909674
11.962544000000008,6.779037110620724,0.09913373075412425
11.964988000000004,6.78132064647873,0.09897612481086296
11.967432000000002,6.782393477523238,0.0988403348626443
11.969876,6.783046999687165,0.09872535646904419
11.972312000000016,6.785562852970648,0.0985964367754018
11.974768000000012,6.785936835880855,0.09849627663044647
11.977212000000009,6.788592458791198,0.09836059012510309
11.979656000000006,6.789385750581985,0.09823991560982687
11.982100000000004,6.787245776066578,0.09814731468746137
11.984552000000008,6.783895096737671,0.09807586648275178
11.986999999999997,6.783337914088101,0.09798439558063371
11.989440000000002,6.791720299983976,0.09780515130059486
11.99187600000002,6.798891981066352,0.09764622174175158
11.994324000000006,6.800988525469255,0.0975413119850134
11.996764000000011,6.804854853193097,0.09738922905497273
11.99920800000001,6.812585612782914,0.09720510157928984
12.001648000000015,6.818034732372592,0.09705524003712473
12.004092000000014,6.826556887895327,0.09687220260014685
12.006536000000011,6.838291848977978,0.09665007273404247
12.008976000000018,6.854450320434041,0.0963686541575622
12.011420000000015,6.871539957449883,0.09608121632926243
12.013868000000002,6.894124040025778,0.09572404430665946
12.016312,6.917127431482255,0.09534732438369031
12.018760000000016,6.947487599618341,0.09489006547971575
12.021200000000022,6.973331709582395,0.0944571424135149
12.02364,6.999967215479366,0.0940243654646428
12.026083999999996,7.028465052495895,0.09358476433151944
12.028532000000013,7.053889853579369,0.09317662530844475
12.03097600000001,7.0834586257825345,0.09272769399299427
12.033420000000008,7.112375771679645,0.0922736287914463
12.035852000000006,7.137568255337641,0.09184600090383944
12.038296000000004,7.1571737456369675,0.0914575122126895
12.040748000000008,7.178269480003514,0.09103683228897856
12.043192000000005,7.208304782915505,0.09054081127804112
12.04564000000002,7.233125179521164,0.09010202349348165
12.048076000000007,7.251147877954655,0.0897156111914932
12.050528000000014,7.266796388589391,0.08932450885251128
12.052972000000011,7.28058256810457,0.08894533568120366
12.055412000000018,7.289433380567138,0.08860693446235653
12.057856000000015,7.296002553029567,0.08830065637817182
12.06032000000002,7.303642660678635,0.08798357674455579
12.062764000000016,7.305276466088453,0.08771922234848026
12.06521600000002,7.304908170751854,0.08747140781017222
12.067660000000018,7.297462637989366,0.08728638569297313
12.070104000000017,7.291739666719574,0.08709667441080977
12.072564,7.287506939517002,0.08687628483128391
12.075007999999997,7.280340946008234,0.08667811952034167
12.077452000000022,7.276387758059382,0.08644549280044762
12.079888000000013,7.270572238990973,0.08622378352244145
12.082332000000008,7.262614849549287,0.08602397415163825
12.084772000000015,7.257590726413797,0.08580346341795622
12.087216000000012,7.254428934397863,0.08557343304562094
12.089664,7.25005643756843,0.08536054640082869
12.092100000000016,7.235952976260634,0.08521342527928846
12.094556000000011,7.224782781259033,0.08504561607876891
12.097000000000008,7.2191995796161015,0.08484932889160147
12.099440000000016,7.218411975398922,0.0846232307636904
12.101884000000013,7.216553435995103,0.0844073727357338
12.104332,7.21748839327062,0.08417674210675097
12.106775999999996,7.218702889799858,0.08393364112872828
12.109228000000002,7.2207087822620135,0.0836935235061649
12.11166400000002,7.223506070657087,0.08345438631161009
12.114108000000016,7.230028021291273,0.08319738783840754
12.116552000000013,7.237481137485238,0.0829349320383751
12.11899600000001,7.248798685545177,0.08264924670391194
12.121440000000009,7.260907629538034,0.08236778257674364
12.123884000000004,7.271014472784473,0.08210102345204796
12.12634,7.278048280097858,0.0818601128105828
12.128780000000006,7.279727411478049,0.08167185993838874
12.13122800000002,7.2872730754706305,0.08144582112768085
12.133679999999998,7.29067476834352,0.08125608782648606
12.136123999999995,7.294867857149325,0.08106946373945925
12.13858000000002,7.301342585955268,0.08085620700169682
12.141024000000016,7.313404308119883,0.08061664796826369
12.143464000000025,7.322812303232022,0.08038375471875227
12.14590800000002,7.329706340918546,0.08015166178445528
12.148364000000017,7.334877817112373,0.07992286106288847
12.150808000000012,7.343122329239256,0.07966965405622561
12.153260000000015,7.352717315806499,0.0793949350199185
12.155696000000006,7.362172532746881,0.07912703223490361
12.158140000000005,7.367111691515232,0.07887271587670203
12.160584,7.373261555097081,0.0786022454846152
12.163027999999995,7.376617921999596,0.078344033764929
12.165468000000004,7.379182892969192,0.07808269645392024
12.16790400000002,7.380444611326672,0.07780635427663375
12.170355999999998,7.378912833004817,0.0775417158329988
12.172799999999995,7.377520824309823,0.07726978355690475
12.17524400000002,7.377199750801466,0.07698716894943561
12.177695999999996,7.38302474915922,0.07665735522874834
12.180140000000025,7.382191818971667,0.07636003498780006
12.18258400000002,7.383640528784251,0.07603652532220707
12.185028000000017,7.380433410797942,0.0757308437605591
12.187467999999996,7.376946753557915,0.07543826948922203
12.18991200000002,7.371737534825191,0.07514668130387193
12.192360000000008,7.36918204314494,0.07485050579766823
12.194804000000005,7.365415846651191,0.07456902000847473
12.197248000000002,7.360299175717083,0.074308996480163
12.19968400000002,7.353180404036559,0.07406184117424702
12.202128000000016,7.342569287542399,0.0738548475241408
12.204567999999997,7.328745365488324,0.07367559852847222
12.20701200000002,7.3163644656732245,0.07350706457089706
12.209463999999995,7.302912630671486,0.07334749180642446
12.211908000000022,7.290252191602664,0.07319032177519938
12.214364000000018,7.283598054773094,0.07299506061105612
12.216808000000016,7.274103199435946,0.0728487292343436
12.219248000000022,7.262186934471799,0.07273263515607035
12.221696000000009,7.253995331746768,0.07260342086833634
12.224143999999995,7.2476660601412926,0.07246769278004629
12.22658800000002,7.239334687789399,0.07234441073377378
12.229036000000008,7.23472797767662,0.07220832485877975
12.231471999999997,7.22998149793698,0.0720782384385441
12.233916000000022,7.2288199108095945,0.07194170767704013
12.23636000000002,7.226587388495569,0.07181446319257534
12.238804000000016,7.22714836286088,0.07167847916159133
12.24125600000002,7.225567466852913,0.07156053343074355
12.24369200000001,7.227990772337779,0.07141888565403082
12.246151999999997,7.2364203800618965,0.07124314842300664
12.248604,7.249505815584906,0.07105454420926038
12.251047999999995,7.2659438262946905,0.07083371438889459
12.253500000000004,7.287876282564528,0.07056359309195628
12.25593600000002,7.312881774767421,0.07027415559395972
12.258392000000017,7.33947005883615,0.06999160589528192
12.260832000000022,7.366198112531739,0.0697039191250251
12.26327600000002,7.388642425480774,0.06945382628908815
12.265720000000016,7.415370479176364,0.06917098527553478
12.268168000000005,7.446382273618507,0.06885371873339237
12.270612,7.479675708060788,0.06851898693954295
12.273055999999997,7.512969142503069,0.0681865779379302
12.275492000000014,7.548124908064906,0.06785154577833243
12.277936000000013,7.584351608813383,0.06751156554575315
12.280376000000018,7.620298770308138,0.06718374495247291
