Time,Force,Position
11.183992,0.11280971606664389,0.0
11.186376,0.11057529789474976,0.0
11.188772,0.10633877897643879,0.0
11.19116,0.1003796985654314,0.0
11.19354,0.0941410789007036,0.0
11.195944,0.0840171162406429,0.0
11.198332,0.07510385839408096,0.0
11.200712,0.06805293166707564,0.0
11.203108,0.06193317049984865,0.0
11.205492,0.05474247414598312,0.0
11.207876,0.04540990741884054,0.0
11.210272,0.03486663587819922,0.0
11.212656,0.026185695457114536,0.0
11.215052,0.021369186902003342,0.0
11.217448,0.018275239839588585,0.0
11.219836,0.017183393523590676,0.0
11.222216,0.015020612020954238,0.0
11.224616,0.014580392011014232,0.0
11.227004,0.014279941627934434,0.0
11.229384,0.013979491244854637,0.0
11.23178,0.011816709742218197,0.0
11.234168,0.007791597120025117,0.0
11.236548,0.004837419684470568,0.0
11.238944,0.002814407808694339,0.0
11.241336,0.0,0.0
11.243716,0.00039299818169685676,0.0
11.246112,0.0030676363635309856,0.0
11.2485,0.007092748985724065,0.0
11.250884,0.010186696048138823,0.0
11.253288,0.010347376804358412,0.0
11.255676,0.013441323866773172,0.0
11.258056,0.016814810182908355,0.0
11.260452,0.01681481018290835,0.0
11.26284,0.01681481018290835,0.0
11.26522,0.01681481018290835,0.0
11.267616,0.017534569446568782,0.0
11.270004,0.01753456944656878,0.0
11.2724,0.01753456944656878,0.0
11.274796000000002,0.01753456944656878,0.0
11.277184000000002,0.01753456944656878,0.0
11.279568,0.01753456944656878,0.0
11.281964,0.01753456944656878,0.0
11.284352000000002,0.01753456944656878,0.0
11.286732,0.01753456944656878,0.0
11.289132,0.01753456944656878,0.0
11.291516,0.01714157126487192,0.0
11.2939,0.014466933083037797,0.0
11.296296000000002,0.010441820460844716,0.0
11.298684000000002,0.007347873398429956,0.0
11.301064,0.0071871926422103685,0.0
11.30346,0.004093245579795609,0.0
11.305848,0.0007197592636604283,0.0
11.308228,0.0007197592636604283,0.0
11.310624,0.0007197592636604283,0.0
11.313016,0.0007197592636604283,0.0
11.315396,0.0,0.0
11.317792,0.0,0.0
11.32018,0.0,0.0
11.322576000000002,0.0,0.0
11.324972,0.0020230118757762284,0.0
11.32736,0.005908354871109098,0.0
11.329744000000002,0.008862532306663647,0.0
11.33214,0.013679040861774835,0.0
11.334528,0.019426714976664348,0.0
11.336912000000002,0.022101353158498475,0.0
11.339308,0.022101353158498475,0.0
11.341696,0.022101353158498475,0.0
11.344080000000002,0.022101353158498475,0.0
11.346476,0.022101353158498475,0.0
11.348864,0.022101353158498475,0.0
11.351248000000002,0.022101353158498475,0.0
11.353648,0.022101353158498475,0.0
11.356032,0.022101353158498475,0.0
11.358412,0.022101353158498475,0.0
11.360816,0.02210135315849848,0.0
11.363204,0.02210135315849848,0.0
11.365584000000002,0.02210135315849848,0.0
11.36798,0.022214812086474914,0.0
11.370364,0.022214812086474914,0.0
11.372744,0.020191800210698684,0.0
11.375140000000002,0.016306457215365815,0.0
11.377528000000002,0.013352279779811268,0.0
11.379908,0.008535771224700076,0.0
11.382312,0.0027880971098105654,0.0
11.3847,0.00011345892797643636,0.0
11.38708,0.00011345892797643636,0.0
11.389476000000002,0.00011345892797643636,0.0
11.391864000000002,0.00011345892797643636,0.0
11.394244,0.00011345892797643636,0.0
11.396648,0.0009257659902539242,0.0
11.399036,0.000925765990253924,0.0
11.401416,0.0029487778660301526,0.0
11.403812000000002,0.005902955301584701,0.0
11.406200000000002,0.00792596717736093,0.0
11.40858,0.008878043866498628,0.0
11.410976000000002,0.008898954995858004,0.0
11.413364,0.009711262058135493,0.0
11.415748,0.009597803130159056,0.0
11.418144000000002,0.009597803130159056,0.0
11.420532,0.010270340565576335,0.0
11.422928,0.012013813187632142,0.0
11.425324,0.01496799062318669,0.0
11.427712,0.01820170731246166,0.0
11.430092000000002,0.01836238806868125,0.0
11.432492,0.023458435877512857,0.0
11.434876,0.030556584432761314,0.0
11.437260000000002,0.039656833734426626,0.0
11.439656,0.04875708303609194,0.0
11.442044,0.05799710196461746,0.0
11.444424,0.06549364827108718,0.0
11.44682,0.07566483275939102,0.0
11.449208,0.08353346611819822,0.0
11.451588,0.08953976835744877,0.0
11.453984000000002,0.09754817134311616,0.0
11.456372000000002,0.10769844470206064,0.0
11.458768,0.11491545175480994,0.0
11.461164,0.11840779656844594,0.0
11.463548,0.1216415132577209,0.0
11.465932,0.12273335957371884,0.0
11.468336,0.12206082213830155,0.0
11.47072,0.12031734951624573,0.0
11.4731,0.11736317208069119,0.0
11.475496,0.11412945539141622,0.0
11.477884,0.11396877463519661,0.0
11.480264000000002,0.10887272682636501,0.0
11.482656,0.10177457827111655,0.0
11.485044000000002,0.09267432896945126,0.0
11.487436,0.08357407966778593,0.0
11.489832,0.07433406073926041,0.0
11.49222,0.0660252073705132,0.0
11.494600000000002,0.05585402288220937,0.0
11.496996,0.04596237764762595,0.0
11.499384,0.037001897972820844,0.0
11.501764,0.026970483111377216,0.0
11.50416,0.01586813306329505,0.0
11.506548,0.008630214881186378,0.0
11.508944,0.004325563005272878,0.0
11.51134,0.0010918463159979082,0.0
11.513728,0.0,0.0
11.516108,0.0,0.0
11.518512,0.0,0.0
11.520896,0.0,0.0
11.523276,0.0,0.0
11.525672,0.002442320756356859,0.0
11.52806,0.0038137063260751873,0.0
11.53044,0.008118358201988687,0.0
11.532844,0.014285341197458827,0.0
11.535232,0.023385590499124136,0.0
11.537612,0.03369654461428819,0.0
11.540016,0.043867729102592026,0.0
11.542404,0.051105647284700705,0.0
11.544784,0.0592747310265877,0.0
11.54718,0.0643707788354193,0.0
11.549568,0.06946682664425091,0.0
11.551948,0.07456287445308252,0.0
11.554352000000002,0.07737728226177686,0.0
11.55674,0.08326472600352658,0.0
11.55912,0.08901240011841609,0.0
11.561524,0.09382890867352728,0.0
11.563912000000002,0.10250984909461196,0.0
11.566292,0.1094682280230002,0.0
11.568688000000002,0.1144245062049716,0.0
11.571076,0.12338498587977671,0.0
11.573456,0.1279010440518081,0.0
11.575852,0.13549013815689487,0.0
11.578236,0.13907503076914796,0.0
11.58062,0.1400061963289263,0.0
11.583016,0.13693316039587092,0.0
11.585404,0.13358058520909513,0.0
11.587784,0.13129894520895785,0.0
11.590184,0.13274196744793385,0.0
11.592572,0.13153126263443513,0.0
11.594952,0.13218288894049302,0.0
11.597348,0.13190334968677261,0.0
11.599736,0.13162381043305219,0.0
11.60212,0.13376568080632922,0.0
11.604516,0.13190334968677256,0.0
11.606904,0.13018078819407616,0.0
11.609284,0.12631635632810267,0.0
11.611688,0.11826073151419213,0.0
11.614076,0.11285693789488709,0.0
11.616456,0.11364264625419745,0.0
11.618852,0.10958174364377439,0.0
11.62124,0.12520939984194854,0.0
11.62362,0.16015352779638245,0.01255121162797437
11.626016,0.21213438336480797,0.023726251414580724
11.628404,0.27570474281541557,0.03460136679567368
11.6308,0.35510112506651603,0.04499323430882992
11.633196000000002,0.45157956090198215,0.055000746244478656
11.635584,0.570866813307344,0.06439136498812921
11.637964,0.7091456722448714,0.07346652730268315
11.64036,0.867114985848865,0.08228517594396006
11.642748,1.0404456874023973,0.09096169852951971
11.645128,1.2281121676892033,0.09966819890723481
11.647528,1.4347230326799312,0.10830246719600027
11.649912,1.6560417634562707,0.11695206751496061
11.652296,1.890952098861209,0.12557836572863837
11.654692,2.132796110349438,0.1343365995693465
11.65708,2.39442312430275,0.14305592662460986
11.65946,2.676299671429969,0.15164779734952996
11.661864,2.9827586101637626,0.15988591236976338
11.664252,3.3018836755399845,0.16785880375689094
11.666632,3.634003524498467,0.1755882233723505
11.669028,3.9390799338266125,0.18338879880737796
11.671416,4.21902056061435,0.17866397523913286
11.6738,4.488954475385743,0.1752420304026921
11.676204000000002,4.754049362618878,0.17204931845331942
11.678592000000002,5.002434283319986,0.16933406360379985
11.680972,5.225543651853827,0.16707048602360836
11.683376,5.418162561914068,0.1655046903599911
11.685760000000002,5.590067303949448,0.1642701986830909
11.688144,5.742653678370698,0.1633346810328
11.690536000000002,5.883882866335243,0.16249345243006955
11.692924,6.010124649260458,0.16163642210915535
11.695308,6.1110436581901615,0.16095640306256556
11.697704000000002,6.204704125812481,0.16012286662668385
11.700092,6.292454630709906,0.15923195917471433
11.702472,6.384724985495101,0.15801623968018608
11.704868,6.457399329270314,0.15684713419743002
11.707256,6.506985317221911,0.15582997889892095
11.709636,6.526915672745333,0.15525069001169559
11.712036,6.528362486700048,0.15499422125629225
11.71442,6.520450423228736,0.15493608138614132
11.716816,6.525527455766077,0.15471236872789154
11.719212,6.534841007221728,0.1544379209096463
11.7216,6.534703133452736,0.15432236351193995
11.72398,6.5328426981910495,0.15422938320827176
11.726376000000002,6.536894121512125,0.15411164030524313
11.728764000000002,6.550070208975882,0.15389828449704168
11.731148,6.567063506477369,0.1536548104841766
11.733544000000002,6.586570761404471,0.15338332382180375
11.735932000000002,6.609523139316965,0.1530675783638491
11.738312,6.632847604281797,0.15277584080450773
11.740708,6.660688127418662,0.15242047899887035
11.743096,6.700121946153445,0.15186155193232959
11.74548,6.729452713357529,0.15146507586760735
11.747876000000002,6.752824400150603,0.15114375913285732
11.75026,6.760179280972345,0.15111706519518034
11.752644,6.772701846272174,0.151031457078709
11.75504,6.788157677878198,0.15089533723345627
11.757428,6.807245623924721,0.1506648724545806
11.759808,6.829266836277436,0.15038146116174197
11.762208,6.853941775682628,0.1500714461446212
11.764596,6.879919967699936,0.14977616691910228
11.766992000000002,6.904827224530605,0.1495032813080331
11.769388,6.935648235801907,0.14908933340187602
11.771776,6.958880152968124,0.14879169125414143
11.774160000000002,6.976013220096472,0.14856564411898496
11.776556,6.994636531292038,0.1482989053026902
11.778944,7.020476849540353,0.1479013712714774
11.781328000000002,7.045293454430276,0.14748612489787288
11.783724,7.074301252268133,0.14696410605681814
11.786112,7.101074631934096,0.14645423339316713
11.788492000000002,7.123983579734086,0.14600549183398018
11.790888,7.137161563055711,0.1457074427700817
11.793276,7.151922338243175,0.14539714847538535
11.795656,7.163749847124441,0.14513154789584723
11.798056,7.185867398991513,0.144684637601678
11.800444,7.207937729030343,0.14428282054376132
11.802824,7.231171542054428,0.1438953063800508
11.805220000000002,7.25505698138457,0.14351076274193383
11.807604,7.27698754179654,0.14311870508027322
11.809984,7.292679482543782,0.1428028070440619
11.812384000000002,7.303436056238412,0.1425665901847797
11.814772,7.311910989932903,0.14237566880800812
11.817168,7.318383822880977,0.14221814399733532
11.819564,7.328908079150128,0.14195575901661933
11.821952,7.3418537450462775,0.1416377038588652
11.824332000000002,7.351307066128792,0.1413959430820124
11.826728,7.354614315345192,0.14125773969320485
11.829116,7.355779694188317,0.1411583840399126
11.831500000000002,7.34707433892622,0.14120820503502637
11.833896,7.336506652544562,0.14128186392152348
11.83628,7.329663628402022,0.14130756226740085
11.83866,7.333622503924484,0.14117403134204906
11.841068,7.338280227581245,0.14100363843118718
11.843452,7.342705633812529,0.14080675753964045
11.845836000000002,7.340101024446169,0.14068330009583863
11.848232,7.336100614669074,0.1405220121540591
11.85062,7.328655081906586,0.140392348653074
11.853000000000002,7.319766526905121,0.14026364982778255
11.855396,7.309295180037822,0.14014314447991405
11.857788,7.2956110276106045,0.14008061221054274
11.860168000000002,7.280716170369888,0.14004526307863474
11.862564,7.269034118689089,0.13995199492529983
11.864952,7.255210196635012,0.13989743017150122
11.867332,7.238033699394159,0.13990863400484824
11.869736,7.222579763646003,0.13990229836081575
11.87212,7.210059094204041,0.13985240052572204
11.8745,7.201682395881776,0.13973263325467786
11.876904,7.1971701294254835,0.1395581465524334
11.879288,7.192657862969189,0.13938241835136186
11.881668,7.191078862819092,0.1391635626105137
11.884072,7.188988005989795,0.13893556043797956
11.88646,7.180890846921247,0.13880010833090162
11.888840000000002,7.172374378972119,0.13868616352642074
11.891244,7.1695846740085205,0.13849620976750085
11.893628,7.168749847963096,0.1383158127648832
11.896008000000002,7.170661296768762,0.13814234816457235
11.898412,7.181093005239296,0.13786298690501764
11.9008,7.192036570389026,0.13759344989248942
11.90318,7.209218755203484,0.13726262309789794
11.905576,7.235480278190249,0.13679768053558328
11.90796,7.267096477110208,0.13624547091450695
11.91034,7.301925481590082,0.13564580603102802
11.912744,7.341177996443369,0.13497073952274316
11.915132,7.384434712789491,0.13423749228454002
11.917512,7.425829098016055,0.13352983671932078
11.919908,7.46284719469745,0.13286375804614606
11.922292,7.49693202507265,0.13224008099353116
11.924672,7.525290092462317,0.1316862705742985
11.92708,7.5603060883972955,0.13105179640766906
11.929464,7.592388818026077,0.1304575671657982
11.931844000000002,7.622469446908442,0.12989550895743357
11.934248,7.650547975044391,0.12936016688074373
11.936636,7.682490935046312,0.12878060830954594
11.939016,7.710941550234599,0.12827095299978772
11.941412,7.73701797762413,0.12776965473457463
11.9438,7.758997655722211,0.1272947125037414
11.946184,7.771665678222508,0.12692286442401127
11.948588,7.785404635909444,0.12653412150895568
11.950972,7.794347996170628,0.12620395593182362
11.953352,7.794631327140086,0.12597638000172331
11.955752,7.789187895124015,0.12581433218341034
11.95814,7.77932095273453,0.12572444767674162
11.96052,7.763819795158131,0.125729162582444
11.962916,7.750041199074429,0.12572030921265603
11.965304,7.736262602990727,0.1257112207070467
11.967684000000002,7.725137733959499,0.12568050439099718
11.970088,7.715083800114909,0.12563339398210108
11.972472,7.71061685962899,0.1255299848916854
11.974856,7.701214552090457,0.1254865284793035
11.977252,7.695025050111842,0.125395010189937
11.97964,7.688695778506367,0.12531004255146652
11.98202,7.683297672460669,0.12521563960088256
11.98442,7.672684660108639,0.1251940899027254
11.986808,7.663561891823829,0.125136442867484
11.989188,7.658443325031851,0.1250286105089108
11.991584,7.652905449359294,0.1249405417138073
11.993972,7.648391287045133,0.12487392543810633
11.996368,7.6445287510370274,0.12481142292692013
11.998772,7.642388776521621,0.1247370924866765
12.001156000000002,7.646906730551521,0.1245912520520607
12.003536,7.65221608051434,0.12444235312480695
12.005944,7.6615296319699935,0.12424378910974579
12.008328,7.673776449731841,0.12400939232559702
12.010708,7.682019066000855,0.12382654068777096
12.013112,7.691332617456506,0.12362844514863014
12.0155,7.702927808912295,0.12339429163886698
12.017880000000002,7.715034857047283,0.12317185056761021
12.020284,7.724068869249216,0.12299020745114592
12.022672,7.738038248503759,0.12275130111280338
12.025052,7.74679272145197,0.12258329640911113
12.027448,7.754476259213543,0.12243063326852671
12.029836,7.765093063281311,0.12224527926293823
12.032216000000002,7.776780802535718,0.122043184354925
12.03462,7.786186901789988,0.12187920276676227
12.037008,7.79438229623076,0.12173854625359742
12.039388,7.805790496231447,0.12155242057460687
12.041792,7.823764076978824,0.12126893195949467
12.04418,7.842948362539701,0.12096576738342606
12.04656,7.8614810217945195,0.12065922595501992
12.048956,7.8753578532504465,0.12039688108199481
12.051344,7.894030282132125,0.12008758118038981
12.053728,7.910840379894246,0.11979806290046904
12.056124,7.926067685790533,0.1195118191532696
12.058508,7.939572430194121,0.11923420066718124
12.060887999999998,7.95293740497085,0.11896441666982357
12.063284,7.958014437508191,0.11879976458505619
12.065672,7.961368908552837,0.11864551497406195
12.068056,7.96700501959762,0.11845546072897992
12.070452,7.970778799522845,0.11828332534388866
12.07284,7.978696550567764,0.11805851166261162
12.075220000000002,7.985822905679766,0.11783466354046186
12.077624,7.990015994485572,0.11764266494614536
12.080012,7.997421888851294,0.11740730121865238
12.082388000000002,8.007249192844013,0.1171304440374377
12.084788,8.014143230530538,0.11688428699707604
12.087172,8.019035167470646,0.11666193175527725
12.089556000000002,8.018851967731282,0.11649991616233685
12.09196,8.015083875379663,0.11636361083122641
12.094344,8.009453451908488,0.11624298236595706
12.096724000000002,8.00526605067629,0.1161251458898427
12.099128,7.994420720898783,0.1160693690026872
12.101516,7.98171306000172,0.11602913196516756
12.1039,7.975663327649964,0.1159271731285237
12.106296,7.976551063097238,0.11575205501823843
12.10868,7.974924841118896,0.11558761706631428
12.111064,7.981726331006803,0.1153170043202686
12.11346,7.992811561641266,0.11499211730888759
12.115844,8.001754921902451,0.11469553100223792
12.118224,8.005762915111022,0.1144487647964987
12.120624,8.008979512386677,0.11420408293845549
12.123008,8.016200311155163,0.11391692088184373
12.125388,8.02435227548343,0.11362198587400406
12.127792,8.029291434251782,0.11336903729094237
12.13018,8.03367151451269,0.11314179705265405
12.132560000000002,8.041124630706657,0.11287962581428371
12.13496,8.04843797727376,0.1126239368366444
12.137344,8.056822259027504,0.11235456952246808
12.139728000000002,8.065858167087304,0.11208941090079898
12.142132,8.080620838132637,0.11177512207395372
12.144516,8.099015623618463,0.11140423230547836
12.1469,8.119272740223849,0.1110166409660742
12.149296,8.14046102238901,0.11062195300350745
12.151684,8.153780671195365,0.11030596467067048
12.154064000000002,8.162025183322248,0.1100464271287399
12.156468,8.171852487314966,0.10978443505320021
12.158856,8.177396050561134,0.10957664941526983
12.161236,8.179447268993663,0.10942135234559276
12.16364,8.185642458545885,0.10922085085363006
12.166024,8.199846051083776,0.10894134687354497
12.168408,8.214049643621667,0.10866275075296226
12.170804,8.22639090504,0.10839949127952186
12.173192,8.24101380645847,0.1081064129754467
12.175572,8.25712695194416,0.10778300294155367
12.177968,8.270865909631096,0.10746184031564286
12.180356,8.285024176198613,0.10712492179519008
12.18274,8.297459881273435,0.10679479373241768
12.185136,8.311246060788612,0.10644187141799161
12.187524,8.329176211423487,0.10604715113246285
12.189904,8.341379599072829,0.105698899052447
12.1923,8.350509950789116,0.10538378318153001
12.194688,8.362061712132402,0.10503360962902616
12.197068000000002,8.369749041609712,0.10471295023357606
12.199472,8.382791047020218,0.1043319103695767
12.20186,8.395041656497805,0.10395021063638751
12.204244,8.406500870042473,0.10356887662748153
12.206636,8.418099853214,0.10318109172618455
12.209024,8.428395583773412,0.1027819604585174
12.211408,8.431614076906936,0.10245016640902178
12.213804,8.426963936681652,0.10218606832260592
12.216192,8.423244962016147,0.1019161447254169
12.218572000000002,8.419525987350642,0.10164633669800083
12.220972,8.413665142311858,0.10140085782884972
12.22336,8.408735462832857,0.1011496477751008
12.225740000000002,8.40366601372699,0.10090328985853865
12.22814,8.396175154994129,0.10069196312436207
12.230528,8.390686397007684,0.10046255092325261
12.232908000000002,8.383707394954019,0.10026229215269943
12.235304,8.372584421780662,0.10010275794981181
12.237692,8.36332377972686,0.09993122039351093
12.240076000000002,8.35178149767292,0.09978821180910677
12.242472,8.34089084192504,0.09965073430048521
12.24486,8.33479578360291,0.09947850107643133
12.24724,8.330283517146619,0.09930723057159105
12.249636,8.329775452183158,0.09910240955685402
12.252024,8.333411358339394,0.09885940729105244
12.254408000000002,8.337838660428547,0.09861647769950321
12.256804,8.345711085503092,0.09836350402813301
12.259188000000002,8.35865864725711,0.09806563605022028
12.261572,8.377752280877239,0.09771252063900615
12.263968000000002,8.397497540803425,0.09736754558867279
12.266356000000002,8.415892326289253,0.09704487949776573
12.26874,8.4333559462153,0.09672779350343032
12.271135999999998,8.44974863095471,0.09642323005817548
12.273524000000002,8.47279924423943,0.09607862464178892
12.27592,8.495849857524151,0.09573339791983035
12.278316,8.519691866741788,0.09539010815990594
12.2807,8.541671544839868,0.09505659727588388
