Time,Force,Position
12.402224,0.04670988277816758,0.0
12.40462,0.04150695157912671,0.0
12.407004,0.035372854820307525,0.0
12.409384,0.030030153994406453,0.0
12.411788,0.02668955391492223,0.0
12.414176,0.024140349768356113,0.0
12.41656,0.021079288942592308,0.0
12.418956,0.017087062557050184,0.0
12.421344,0.012955066544647849,0.0
12.423724,0.00668120015896845,0.0
12.426128000000002,0.0022696648928456943,0.0
12.428516000000002,0.0,0.0
12.430896,0.0,0.0
12.4333,0.0,0.0
12.435688,0.0,0.0
12.438068,0.0,0.0
12.440464000000002,0.0,0.0
12.442852000000002,0.0,0.0
12.445232,0.0,0.0
12.447636,0.0,0.0
12.450024,0.0,0.0
12.452404,0.0,0.0
12.4548,0.0,0.0
12.457188000000002,0.0,0.0
12.459572,0.0,0.0
12.461968,0.0,0.0
12.464356000000002,0.0,0.0
12.466736,0.0,0.0
12.469132000000002,0.0,0.0
12.471520000000002,0.0,0.0
12.473904,0.0,0.0
12.476300000000002,0.0,0.0
12.478688000000002,0.0,0.0
12.481068,0.0,0.0
12.483464,0.0,0.0
12.485852,0.0,0.0
12.488232,0.0,0.0
12.490628,0.0,0.0
12.493016,0.0,0.0
12.4954,0.0,0.0
12.497796,0.0,0.0
12.500184,0.0,0.0
12.502564,0.0,0.0
12.50496,0.0,0.0
12.507348,0.0,0.0
12.509728,0.0,0.0
12.512128,0.0,0.0
12.514516,0.0,0.0
12.516912,0.0,0.0
12.519308,0.0,0.0
12.521696000000002,0.0,0.0
12.524076,0.0,0.0
12.526472000000002,0.0,0.0
12.528860000000002,0.0,0.0
12.53124,0.0,0.0
12.533644,0.0,0.0
12.536032,0.0,0.0
12.538416000000002,0.0,0.0
12.540812,0.0,0.0
12.5432,0.002409434519705904,0.0
12.54558,0.0026769986661347466,0.0
12.54798,0.0026769986661347466,0.0
12.550368,0.002676998666134747,0.0
12.552748,0.006017598745618971,0.0
12.555144000000002,0.006564702145768235,0.0
12.557528,0.006564702145768235,0.0
12.559912,0.0065647021457682355,0.0
12.562308000000002,0.0065647021457682355,0.0
12.564696,0.0065647021457682355,0.0
12.567076,0.0065647021457682355,0.0
12.569476000000002,0.0065647021457682355,0.0
12.571864,0.0065647021457682355,0.0
12.574244,0.0065647021457682355,0.0
12.57664,0.0065647021457682355,0.0
12.579028,0.0065647021457682355,0.0
12.581412,0.009066684464091198,0.0
12.583812000000002,0.012499832342192482,0.0
12.586196,0.014070649100737125,0.0
12.588592000000002,0.015641465859281767,0.0
12.590988,0.013232031339575866,0.0
12.593372000000002,0.012964467193147021,0.0
12.595752,0.012964467193147021,0.0
12.598148000000002,0.012964467193147021,0.0
12.600536000000002,0.009623867113662797,0.0
12.602916,0.009076763713513533,0.0
12.605312,0.009076763713513533,0.0
12.6077,0.009076763713513533,0.0
12.610092000000002,0.009076763713513533,0.0
12.612488,0.009204558233082166,0.0
12.614876,0.012684927939426601,0.0
12.617256,0.015094362459132506,0.0
12.619652000000002,0.017503796978838408,0.0
12.622040000000002,0.020984166685182847,0.0
12.62442,0.02367314045860917,0.0
12.626824,0.02729327979181382,0.0
12.629212,0.027200731993196756,0.0
12.631592,0.02524585307502305,0.0
12.633988000000002,0.024082370089767467,0.0
12.636376000000002,0.024129591918010618,0.0
12.63876,0.028680896810993582,0.0
12.641156,0.03430313689061508,0.0
12.643544000000002,0.03685234103718119,0.0
12.645924,0.041543415557024364,0.0
12.648320000000002,0.04423238933045069,0.0
12.650708000000002,0.047061132730737226,0.0
12.653092,0.050821041690802086,0.0
12.655488000000002,0.05323047621050799,0.0
12.657876000000002,0.054708745170435565,0.0
12.660272,0.05484851479729578,0.0
12.662668,0.05136814509095135,0.0
12.665056,0.04895871057124544,0.0
12.667436000000002,0.04654927605153954,0.0
12.669832,0.043068906345195106,0.0
12.67222,0.04037993257176878,0.0
12.674604000000002,0.03675979323856414,0.0
12.677,0.034350358718858234,0.0
12.679388,0.032872089758930655,0.0
12.681768000000002,0.0324647559856416,0.0
12.684164,0.0308467173988538,0.0
12.686552,0.026295412505870835,0.0
12.688932,0.020673172426249338,0.0
12.691336,0.018123968279683222,0.0
12.693724,0.013432893759840046,0.0
12.696104000000002,0.01074391998641372,0.0
12.698508,0.007915176586127188,0.0
12.700892,0.004155267626062331,0.0
12.703272000000002,0.0017458331063564272,0.0
12.705668,0.000267564146428843,0.0
12.708056,0.0,0.0
12.710436,0.0,0.0
12.712832,0.0,0.0
12.715216000000002,0.0,0.0
12.717612,0.0,0.0
12.720008,0.0,0.0
12.722396,0.0,0.0
12.724776000000002,0.0,0.0
12.727172,0.0,0.0
12.72956,0.0,0.0
12.731940000000002,0.0,0.0
12.734336,0.0,0.0
12.736720000000002,0.001570816758544643,0.0
12.739116,0.0043523383305880264,0.0
12.741512,0.009555269529628893,0.0
12.7439,0.01876240222150346,0.0
12.74628,0.029180239726876764,0.0
12.748676,0.04160017797866692,0.0
12.75106,0.05415988585731729,0.0
12.753456,0.07086356485566157,0.0
12.755852,0.08449420792095047,0.0
12.75824,0.09719368542646105,0.0
12.76062,0.11003293255883184,0.0
12.763024,0.12380334525098095,0.0
12.765408,0.13636305312963132,0.0
12.767792,0.1489227610082817,0.0
12.770196000000002,0.1633448000064887,0.0
12.772584000000002,0.1766959038180572,0.0
12.774964,0.1868342020697101,0.0
12.777360000000002,0.19576179550786424,0.0
12.779744,0.20268728819960155,0.0
12.782128,0.2085418457047003,0.0
12.784532,0.2117546512646159,0.0
12.786920000000002,0.2157588527574496,0.0
12.7893,0.2129181342498715,0.0
12.791704,0.2037110015579969,0.0
12.794088000000002,0.19329316405262362,0.0
12.796472,0.18087322580083343,0.0
12.798868,0.16831351792218308,0.0
12.801252000000002,0.1516098389238388,0.0
12.803632,0.1379791958585499,0.0
12.80604,0.1252797183530393,0.0
12.808424,0.11244047122066851,0.0
12.810804,0.09867005852851941,0.0
12.813204,0.08611035064986904,0.0
12.815592,0.07355064277121866,0.0
12.817972,0.059128603773011656,0.0
12.820368000000002,0.045777499961443174,0.0
12.822756000000002,0.03563920170979029,0.0
12.825136,0.02671160827163614,0.0
12.827536000000002,0.01978611557989884,0.0
12.829924000000002,0.013931558074800076,0.0
12.832304,0.00914793575633984,0.0
12.834700000000002,0.002362212691462754,0.0
12.837088,0.0,0.0
12.839472,0.0,0.0
12.841876,0.0,0.0
12.844264,0.0,0.0
12.846644,0.0,0.0
12.84904,0.0,0.0
12.851428000000002,0.0,0.0
12.853808,0.0,0.0
12.856204000000002,0.0,0.0
12.858592000000002,0.0,0.0
12.860976,0.0,0.0
12.863372000000002,0.0,0.0
12.865756,0.0,0.0
12.86814,0.0,0.0
12.870536,0.0,0.0
12.872924,0.0,0.0
12.875304,0.0,0.0
12.8777,0.0,0.0
12.880088,0.0,0.0
12.882468,0.0,0.0
12.884868,0.0,0.0
12.887256,0.004783622318460235,0.0
12.889636,0.00905538795772278,0.0
12.892032,0.014118549529903433,0.0
12.89442,0.0193214807289443,0.0
12.896816,0.023313707114486423,0.0
12.899212000000002,0.02651453756711044,0.0
12.901600000000002,0.0277132672733176,0.0
12.903984,0.027713267273317604,0.0
12.906380000000002,0.027713267273317604,0.0
12.908764,0.0306345584722212,0.0
12.911144,0.033416080044264586,0.0
12.91354,0.03493967497456607,0.0
12.915928,0.03493967497456607,0.0
12.918308,0.037855278599861944,0.0
12.920708,0.0503110635326798,0.0
12.923092,0.08087261540825863,0.0
12.925476,0.13303227904023443,0.010771591528196477
12.927872,0.20488239733867677,0.020357833198502904
12.93026,0.28939295470593956,0.029737875900696965
12.932656,0.38572533338086157,0.03915220698758681
12.935052,0.49156264664235416,0.048602565056133175
12.93744,0.6156454964734678,0.05792252076930779
12.93982,0.7611413624637443,0.0667782215248235
12.942216000000002,0.9256760568144294,0.07533776511019956
12.944604000000002,1.1074344702342096,0.08371825181084638
12.946984,1.3099070516788518,0.09195649352557692
12.949388,1.5366786937606087,0.10004490800891958
12.951776,1.7836406720807383,0.10805987615832516
12.954160000000002,2.0432630894696886,0.1160843466572308
12.956556,2.311321402116439,0.12411436682484639
12.958944,2.5879887305109346,0.13231014158218643
12.961324,2.885185131333057,0.1404192604489338
12.963720000000002,3.2063437524609086,0.14829482600288327
12.966108000000002,3.538507031531896,0.1559855357099593
12.968488,3.8630396822431616,0.16360379850198145
12.970888000000002,4.157688174816511,0.1713545627062097
12.973276000000002,4.4217064392894,0.168473715355249
12.975656,4.664124696148024,0.16685711778003048
12.978052000000002,4.896116932109721,0.1654332161266076
12.980440000000002,5.118057130084698,0.1639055890798431
12.982824,5.322590409251216,0.16232490507711192
12.985220000000002,5.505572798489579,0.16090232029634435
12.987608000000002,5.6647207619417825,0.16000593084914908
12.989988,5.804782675205334,0.1594436217929465
12.992388000000002,5.930274596452264,0.15905411048911655
12.994776000000002,6.027882564449828,0.1589334416328942
12.997156,6.095744248078468,0.15910662287797372
12.999556000000002,6.144986412227278,0.15937348572351467
13.001944000000002,6.185245577718138,0.15960640291995962
13.004324,6.214891730856968,0.1598736561553148
13.006724000000002,6.244496349741164,0.15976799286893792
13.009112000000002,6.254085648734798,0.15970969001924704
13.011492,6.236021416046672,0.16000917295184716
13.013892000000002,6.202127368842316,0.16057764160815843
13.016280000000002,6.173633323541526,0.1610863072562301
13.01866,6.162551884622802,0.16131417270071874
13.021056000000002,6.159478848689748,0.16138113749976066
13.023444,6.160177696824049,0.1613363293542989
13.02584,6.168325869436576,0.16116535285922193
13.028236,6.181454735072091,0.1609849175473595
13.030624,6.198353588917091,0.16082340583677593
13.033004000000002,6.219069652799822,0.1606341972596006
13.0354,6.233547097017826,0.16053084987074828
13.037788,6.250306181235967,0.1603686749800297
13.040168,6.268787826946804,0.16018535513710155
13.042568,6.3000262512408165,0.1597917771047111
13.044956,6.342485884080413,0.15915250061813063
13.047336,6.386343213188613,0.15842973823186604
13.049732,6.428245663378636,0.15771138809795038
13.052120000000002,6.474059767262879,0.1568840621905593
13.0545,6.510375224094234,0.15628554333938605
13.056908,6.544641358350929,0.1557678547201269
13.059292,6.585612642981174,0.15507993067589132
13.061676000000002,6.628353710932362,0.15431588771826096
13.064072,6.666438951084657,0.1536509640766524
13.06646,6.7003329982890145,0.15313096082570166
13.068844000000002,6.74018612590438,0.15254953541886815
13.071236,6.777385526467271,0.15200636649602678
13.073624,6.79903465176765,0.15169909854648528
13.076004,6.812722595910606,0.15150039396575807
13.078400000000002,6.830834050426976,0.15120822987985438
13.080788000000002,6.848713187517868,0.1508901932333565
13.083172,6.879164007594703,0.1503178085418063
13.085568000000002,6.903655747260531,0.14981039650286573
13.087956000000002,6.925261442448405,0.14931483116037506
13.090352,6.944073640956946,0.14886929731510692
13.092748,6.956972085024851,0.14856684388289076
13.095136,6.9673093498388985,0.1483329242798576
13.097516,6.975132657227333,0.14812434283892778
13.09992,6.980302237563291,0.14795095290373958
13.102304,6.989476019392082,0.14770962579931088
13.104684,7.003585168273488,0.14738616620908934
13.107088,7.014481511594979,0.14712630139392857
13.109472,7.025797163797048,0.14684311852870668
13.111852,7.035530024133283,0.14657286137307637
13.114256,7.047032667790457,0.1462460901486597
13.116644,7.049735512529045,0.14605884360581722
13.119024,7.052717896521351,0.1458558536141369
13.121428000000002,7.061194726073712,0.14553860381420808
13.123816,7.069579007827453,0.14518611702494755
13.126192,7.071956987341944,0.14493776078343099
13.128588,7.07736078096125,0.14467778064980566
13.130976,7.079132460140059,0.14450439326777992
13.133352000000002,7.086630902304398,0.14424738764973333
13.13576,7.093710035588157,0.1440134642475174
13.138144,7.096784967379083,0.14384519511255994
13.140528,7.104283409543424,0.1435884523210639
13.142924,7.11499465726768,0.14327250488914256
13.145308,7.123983343499237,0.1429721777330035
13.147688,7.127245266745264,0.14275436655538787
13.150092,7.128924398125456,0.14254788943067634
13.15248,7.1335367958118425,0.14229978016205055
13.15486,7.140942690177563,0.14201495182370505
13.157264,7.150350685289701,0.14170018087538194
13.159648,7.1549630829760895,0.14145204483298568
13.162028,7.154081035102422,0.14130981627543396
13.164432,7.160927850960702,0.141055820221722
13.16682,7.171219789804377,0.140770174410203
13.1692,7.184025686073665,0.14046524634899699
13.171596,7.200136935701485,0.14013620962407447
13.173984,7.216760042008506,0.13981624712287535
13.176364,7.229658486076411,0.13954503298696797
13.178772000000002,7.239903203091842,0.13930188078662714
13.181156,7.245352322681521,0.13912524453556055
13.183536,7.249218650405362,0.13895681922297637
13.185936000000002,7.255878474808539,0.13875216398722565
13.188324,7.261467364025076,0.13856837503778463
13.190704,7.262492973241341,0.13847630025304272
13.193108,7.2691055758162735,0.13831407951182384
13.195496000000002,7.282515876563375,0.1380548441708334
13.197876,7.29336499805662,0.1378562862190129
13.200272000000002,7.297416421377696,0.13775533155966357
13.202660000000002,7.302678549512273,0.13762912915625103
13.20504,7.306218116154154,0.1375192629710923
13.207436,7.314553280221785,0.1373447018759615
13.209824,7.327451724289692,0.13708078018859937
13.212204,7.336765275745347,0.1368571966817014
13.2146,7.337698337162995,0.1367341757014208
13.216988,7.3378400026477255,0.1366157365554082
13.219368,7.335048401826261,0.13653799137177558
13.221764,7.332164253206178,0.13642794626601704
13.224156,7.33356384533265,0.13624517140720363
13.226536,7.34096973969837,0.13597637613794944
13.228928,7.352519605183785,0.13564217804063441
13.231316,7.365931801788759,0.13528525547853965
13.233712,7.379763307274311,0.134908345708596
13.236108000000002,7.390521776826811,0.13457814985277394
13.238492,7.404260734513747,0.13416827375039656
13.240872,7.415345965148208,0.13378674246440755
13.243268,7.4236376991033355,0.13343971835193552
13.245656,7.435421777872096,0.13302625204321514
13.24804,7.445203755894442,0.132637462963113
13.250444000000002,7.451261071677672,0.1322923715564402
13.252828,7.455036747460767,0.1319895611938969
13.255212,7.457089861751164,0.13170117822304983
13.257608,7.459142976041563,0.13141479468991235
13.259996,7.461335859958821,0.13112173379294542
13.262376,7.471117837981164,0.1307363606643908
13.264780000000002,7.476755844883814,0.1304135458112671
13.267168000000002,7.4825336214133245,0.13008276068386798
13.269548,7.492036060181947,0.12971195483997755
13.271944,7.498465463017517,0.12938880685705179
13.274332,7.499540189919893,0.12915338820541042
13.276712,7.499264442381911,0.12894948322589084
13.279108,7.502201500403842,0.12869592900643131
13.281496,7.506349263239274,0.12842032060963468
13.283876,7.51478076682126,0.12807853861377602
13.286272,7.5222338830152236,0.1277853650394635
13.28866,7.5283365247688305,0.1275223575407775
13.291056,7.53644126726885,0.1272346112856625
13.293452000000002,7.5406815779029,0.1269925625275425
13.295840000000002,7.551859356335976,0.1266630565859688
13.29822,7.565690861821529,0.1263119814303157
13.300620000000002,7.581384698426636,0.1259409243737868
13.303004,7.597869930964666,0.12556709526005322
13.305384,7.6115616668233566,0.12522368169324288
13.307788000000002,7.626836194547886,0.12487692467804525
13.310176000000002,7.640248391152858,0.12455079803647243
13.312556,7.657525019623804,0.1241795764885035
13.314952000000002,7.677874684027806,0.12376853691441007
13.317336,7.694080377312114,0.1234167508365354
13.31972,7.707213034663365,0.12310474608938708
13.322124,7.720345692014617,0.12279166101535345
13.324508000000002,7.732547183806091,0.12248768252496103
13.326888,7.74032516522415,0.12225575838651097
13.329288000000002,7.743539866641935,0.1221011711399366
13.331672,7.74619548955228,0.1219743986100483
13.334052,7.749410190970065,0.12182104770193615
13.336456000000002,7.751833496454932,0.12166948837005243
13.338844000000002,7.749041895633466,0.12159012797360777
13.341228,7.750766352984032,0.12147222270820736
13.343624000000002,7.751419875147959,0.12137082560638035
13.346008,7.751002462125247,0.12128507976250928
13.348388,7.751516214662314,0.12119065070605263
13.350788,7.752449276079962,0.12107659221600729
13.353172,7.75189209343039,0.1209973593006946
13.355568000000002,7.747889787795425,0.12094003308347596
13.357964,7.744678878093379,0.12088052197751152
13.360352,7.739885176525497,0.12082516367331382
13.362732,7.730947503837919,0.12082398863902238
13.365128000000002,7.723220535963843,0.12080097976159869
13.367516000000002,7.718426834395959,0.12074538572000713
13.3699,7.715914772828214,0.12065260070955548
13.372296000000002,7.713262941633608,0.12056624378599338
13.37468,7.710099253759804,0.12046853808832353
13.377064,7.7097762843935795,0.12030662339604652
13.379460000000002,7.703214695362626,0.1201925845269469
13.381848000000002,7.696653106331672,0.1200783285965218
13.384228,7.692233387673997,0.1199329584751227
13.386624,7.690095309016458,0.11974930830733
13.389012,7.682370237000249,0.11961860541875469
13.391408000000002,7.6730623731182055,0.11949190755670654
13.393804,7.664173818116742,0.1193449911556159
13.396192,7.655425032742137,0.11919146451204117
13.398576000000002,7.64825903923337,0.11903399968476601
13.400972,7.6444456209113785,0.11882450425332375
13.40336,7.640212893708806,0.11863403190682137
13.405740000000002,7.634257605013535,0.11845399599448724
13.408136,7.6290937122511835,0.11827182453397232
13.410524,7.6282135602353875,0.11802936377960821
13.412904,7.626402242659815,0.11779520977501981
13.415300000000002,7.6258016298977385,0.11753988137098645
13.417688000000002,7.624130081949024,0.11729993908738481
13.420068,7.626742274746863,0.11700156356090917
13.422464000000002,7.634150064970454,0.11665653778524547
13.424852,7.6419299422463824,0.11633059140545148
13.427248,7.658230079187177,0.11592549795539636
13.429644,7.676113007993807,0.11551942327631476
13.432032,7.69744105978583,0.11509806331083629
13.434412000000002,7.71928096825705,0.11468758408710365
13.436812,7.744054143034465,0.11424539031473771
13.439196,7.7671973041178015,0.11384347495633129
13.441580000000002,7.786568581133782,0.11350896133379271
13.443976,7.805148462216843,0.11317762578982628
13.446364,7.821726242553489,0.11287023296003153
13.448744,7.836022382889997,0.11259831296396185
13.45114,7.85339155915956,0.1122899384293718
13.453528000000002,7.875416563228014,0.1119452649589728
13.455912,7.898093193602527,0.11160673991110971
13.458308,7.9204902847233205,0.11128480121269912
13.460696,7.945680872523447,0.11094180202768925
13.463076,7.971662856256493,0.1106008571866424
13.465476,7.996434135176037,0.11027979262090347
13.467860000000002,8.017061442975889,0.11000935508049496
13.47024,8.033544779656049,0.10978835862216765
13.472640000000002,8.050028116336208,0.10956850885903067
13.475028000000002,8.063438417083312,0.10938495303942936
13.477424,8.074055221151077,0.10922322257167459
13.47982,8.082297837420091,0.10906603142710909
13.482208,8.094032798502742,0.10885896252980447
13.484588,8.107769860331809,0.10863352309971466
13.486992,8.122577857347514,0.10839469857962898
13.48938,8.14502217029655,0.10806067349319749
13.49176,8.166907404738144,0.10775118476064477
13.49416,8.188932408806597,0.10743632107703467
13.496548,8.21323905287519,0.107090554830806
13.498928,8.237685466570642,0.10674116678067302
13.501328,8.255613721347647,0.10643978501041831
13.503716,8.272890349818592,0.1061339426937978
13.506096,8.286162776796704,0.10586668120707811
13.508500000000002,8.29757287265526,0.10561382924614615
13.510888,8.308051802954036,0.10536903192799896
13.513268,8.322814473999369,0.10507638830858161
13.515664,8.338787849858198,0.10476580396670486
13.518052,8.356111700157387,0.10443125966733177
13.520432,8.369710888217464,0.10412156656997547
13.522828,8.384800320344759,0.10378442368238493
13.525216,8.400960687658692,0.10343514514441673
13.527596,8.41390824941271,0.10312252758624728
13.529992,8.423922544860533,0.10283652074976142
13.53238,8.431934739561937,0.10256984324616368
13.534760000000002,8.442368343890344,0.10226914919113675
13.537156,8.448657977099055,0.10201179099759738
13.539548,8.454575523255423,0.10173730758980024
13.541928000000002,8.463426335717992,0.10144102913994739
13.544324,8.47120621299392,0.10115715401147275
13.546712,8.479777486202767,0.10087477030923943
13.549096,8.493284126464225,0.10055284066482797
13.551492,8.507861701912324,0.10022077282652268
13.55388,8.524860686987418,0.09985453607938746
