Time,Force,Position
10.852888,0.12482074695070697,0.0
10.855276,0.12002514952495515,0.0
10.857656,0.11294791209906606,0.0
10.860052,0.10582946159573069,0.0
10.86244,0.09642937109225805,0.0
10.864820000000002,0.08516694946922877,0.0
10.867216,0.0737647582193393,0.0
10.869604,0.06343350215608838,0.0
10.872,0.051239914973280794,0.0
10.874396,0.03946563667105382,0.0
10.87678,0.028622523928605172,0.0
10.87916,0.01777941118615653,0.0
10.881564,0.007867464003486205,0.0
10.883952,0.005824150179623078,0.0
10.886332,0.005643167475316591,0.0
10.888732,0.004531019211231784,0.0
10.89112,0.002487705387368655,0.0
10.8935,0.0024464923099223783,0.0
10.895904000000002,0.0024464923099223783,0.0
10.898292,0.0022655096056158914,0.0
10.900672,0.001153361341531084,0.0
10.903076,4.121307744627663e-05,0.0
10.905463999999998,0.0,0.0
10.907844,0.0,0.0
10.910240000000002,0.0,0.0
10.912628000000002,0.0,0.0
10.915008,0.0,0.0
10.917412,0.0,0.0
10.9198,0.0,0.0
10.92218,0.0,0.0
10.924575999999998,0.0,0.0
10.926964000000002,0.0,0.0
10.929348,0.0,0.0
10.931743999999998,0.0,0.0
10.934132000000002,0.0,0.0
10.936512,0.0,0.0
10.938908,0.0,0.0
10.941296,0.0,0.0
10.943676,0.0,0.0
10.946076,0.0,0.0
10.948464,0.0,0.0
10.950844,0.0,0.0
10.95324,0.0,0.0
10.955628,0.0,0.0
10.958008,0.0,0.0
10.960404,0.0,0.0
10.962792,0.0,0.0
10.965172,0.0008326090103643869,0.0
10.967568,0.0008326090103643868,0.0
10.969956,0.0028759228342275143,0.0
10.972336,0.005059006284950852,0.0
10.974732,0.00831302492231272,0.0
10.97712,0.013569144306091439,0.0
10.97952,0.020827364436287008,0.0
10.981915999999998,0.026083483820065728,0.0
10.984304000000002,0.027335401711010753,0.0
10.986684,0.027516384415317237,0.0
10.98908,0.02751638441531724,0.0
10.991468,0.02751638441531724,0.0
10.993852,0.02751638441531724,0.0
10.996248,0.02751638441531724,0.0
10.998636,0.02751638441531724,0.0
11.001016,0.02751638441531724,0.0
11.003419999999998,0.02751638441531724,0.0
11.005807999999998,0.02751638441531724,0.0
11.008188,0.02751638441531724,0.0
11.010587999999998,0.02751638441531724,0.0
11.012975999999998,0.026683775404952852,0.0
11.015356,0.026683775404952852,0.0
11.017752000000002,0.024640461581089724,0.0
11.02014,0.022457378130366388,0.0
11.02252,0.01920335949300452,0.0
11.024916,0.013947240109225798,0.0
11.027304,0.006689019979030225,0.0
11.029688,0.0014329005952515052,0.0
11.032084,0.0001809827043064872,0.0
11.034472,0.0,0.0
11.036852,0.0,0.0
11.039252,0.0,0.0
11.04164,0.0,0.0
11.04402,0.0,0.0
11.04642,0.0,0.0
11.048808,0.0,0.0
11.051192,0.0,0.0
11.053588,0.0,0.0
11.055976,0.0,0.0
11.058356,0.0,0.0
11.060759999999998,0.0,0.0
11.063144,0.0,0.0
11.065524,0.0,0.0
11.06792,0.0,0.0
11.070308,0.0,0.0
11.072704000000002,0.0,0.0
11.0751,0.0,0.0
11.077483999999998,0.0,0.0
11.079864,0.0,0.0
11.082260000000002,0.0,0.0
11.084648,0.0,0.0
11.087028,0.0,0.0
11.089432,0.0,0.0
11.091819999999998,0.0,0.0
11.0942,0.0,0.0
11.096604,0.0023228530775835487,0.0
11.098992,0.006647806901583947,0.0
11.101372,0.010041595165806026,0.0
11.103768,0.013435383430028104,0.0
11.106156,0.014966840574693541,0.0
11.10854,0.014966840574693541,0.0
11.110936,0.016498297719358984,0.0
11.113324,0.01649829771935898,0.0
11.115704,0.01649829771935898,0.0
11.118104,0.01649829771935898,0.0
11.120488000000002,0.01649829771935898,0.0
11.122872,0.01649829771935898,0.0
11.125267999999998,0.01649829771935898,0.0
11.127655999999998,0.01649829771935898,0.0
11.130036,0.01649829771935898,0.0
11.132432,0.01649829771935898,0.0
11.13482,0.01649829771935898,0.0
11.137216,0.01649829771935898,0.0
11.139612,0.016498297719358984,0.0
11.142,0.016498297719358984,0.0
11.144384,0.014175444641775435,0.0
11.14678,0.009850490817775035,0.0
11.149168,0.006456702553552956,0.0
11.151547999999998,0.003062914289330877,0.0
11.153948,0.0015314571446654384,0.0
11.156336,0.0015314571446654384,0.0
11.158715999999998,0.0,0.0
11.161112,0.0,0.0
11.163496,0.0,0.0
11.165876,0.001204696062701868,0.0
11.168272000000002,0.004411492871820587,0.0
11.170656,0.009760160054216364,0.0
11.173051999999998,0.018181863169667526,0.0
11.175448,0.024741235165562044,0.0
11.177836,0.03437364309451195,0.0
11.180216,0.04321465509054374,0.0
11.182612,0.04926217040724057,0.0
11.184996000000002,0.05731178647035425,0.0
11.187392,0.06536140253346794,0.0
11.189788,0.07341101859658161,0.0
11.192176,0.08346273540611214,0.0
11.194556,0.09351445221564267,0.0
11.196952,0.10049313309211781,0.0
11.199336,0.10560948284903632,0.0
11.201720000000002,0.10560948284903633,0.0
11.204116,0.10560948284903633,0.0
11.206499999999998,0.10737325741917904,0.0
11.208896,0.1104875064296807,0.0
11.211292,0.11052871950712698,0.0
11.21368,0.1093240234444251,0.0
11.21606,0.10611722663530639,0.0
11.218464,0.1007685594529106,0.0
11.220848,0.09234685633745945,0.0
11.223228,0.08578748434156494,0.0
11.225624,0.07615507641261503,0.0
11.228012,0.06731406441658325,0.0
11.230391999999998,0.06126654909988642,0.0
11.232788,0.05321693303677274,0.0
11.235176,0.045167316973659055,0.0
11.237556,0.03711770091054538,0.0
11.23996,0.027065984101014837,0.0
11.242348,0.01701426729148431,0.0
11.244728,0.010035586415009155,0.0
11.247124,0.004919236658090644,0.0
11.249512,0.004919236658090644,0.0
11.251892000000002,0.004919236658090644,0.0
11.254296,0.0031554620879479358,0.0
11.256684,0.0006415046623333944,0.0
11.259064,0.0006002915848871177,0.0
11.26146,0.0010608135429140252,0.0
11.263844,0.002312731433859043,0.0
11.26624,0.0023127314338590426,0.0
11.268636,0.00249371413816553,0.0
11.271024,0.0024937141381655304,0.0
11.273404,0.0024937141381655304,0.0
11.275808,0.0024937141381655304,0.0
11.278196,0.0024937141381655304,0.0
11.280576,0.0024937141381655304,0.0
11.282972,0.0024937141381655304,0.0
11.28536,0.0024937141381655304,0.0
11.28774,0.0024937141381655304,0.0
11.290136,0.0024937141381655304,0.0
11.292524,0.0024937141381655304,0.0
11.294908,0.0024937141381655304,0.0
11.297304,0.002493714138165531,0.0
11.299692,0.002493714138165531,0.0
11.302072,0.002493714138165531,0.0
11.304472,0.0018934225532784127,0.0
11.30686,0.0018934225532784127,0.0
11.30924,0.0014329005952515052,0.0
11.311644,0.0001809827043064872,0.0
11.314032,0.0001809827043064872,0.0
11.316412,0.002504156959079188,0.0
11.318808,0.01818060966617658,0.0
11.321196,0.052754225248953075,0.0
11.323576,0.11134736221512403,0.009288050916799791
11.325972,0.18925886679542395,0.01778587479621152
11.32836,0.2787598752579059,0.026338784084890765
11.33074,0.382177353573081,0.03499233822785362
11.333136,0.5050510732713761,0.04355360991036315
11.335524,0.6525959406591236,0.051776952100171234
11.337908,0.8254182560720074,0.059609504431311626
11.340304,1.0141138161136274,0.06734234508184125
11.342692,1.2151902759703475,0.07513296437025879
11.345088,1.4313939104932596,0.08297168763095228
11.347484,1.669754735280009,0.09071625195406423
11.349872,1.9337650951442327,0.09827427520682153
11.352252,2.211926138144496,0.10580492944812524
11.354648,2.504470181706276,0.11334174106330754
11.357036,2.8125134869865858,0.12094511182406122
11.35942,3.1409914210380365,0.1285171062105187
11.361816,3.4879037789720817,0.13597913031604267
11.3642,3.83915500408959,0.1434067514984247
11.366584,4.178304868645719,0.1508134322257302
11.36898,4.4947875821166825,0.1581982134513768
11.371368,4.782315407151637,0.1563778601731238
11.373748,5.053271139423557,0.15534883610744654
11.376152,5.322228562664798,0.15411764595465696
11.37854,5.577224190082972,0.15271230005485906
11.38092,5.809784983841455,0.15137087720364106
11.383316,6.011855319126339,0.1504184117946617
11.385704,6.176635601907586,0.15006644618145137
11.388088,6.324052395992879,0.14986105080436674
11.390484,6.458948520636211,0.14960609416662812
11.392868,6.577646535426712,0.14932556533566602
11.395252,6.671254093647183,0.14919094723093135
11.397648,6.734928376043624,0.14933595338532046
11.400036,6.786406854222198,0.1495140702365383
11.402432,6.819637899973282,0.14975530081644262
11.404827999999998,6.833412704341245,0.1499643678312642
11.407215999999998,6.822656130646617,0.15024889346292525
11.409596,6.789600701203422,0.15071711011634414
11.411992,6.752635513923878,0.1511620534489541
11.414376,6.715018700338277,0.15160137071871974
11.416756,6.681079327163545,0.15202550627133818
11.419164,6.651703233989089,0.1523472706184105
11.421551999999998,6.618509930776903,0.15269269800456103
11.423932,6.574235188645992,0.15323691768088107
11.426328000000002,6.53224019065735,0.1538418739149236
11.428716,6.490150749012224,0.15454173447981417
11.4311,6.454672014084161,0.15518316286412714
11.433496000000002,6.438655208112826,0.15548714719815876
11.435884,6.4291565610599415,0.1556863836426722
11.438264,6.424593281059666,0.15579412848687352
11.44066,6.428597482552501,0.15572109930317166
11.443048,6.435302632926049,0.15556963312335806
11.445428,6.441775465874123,0.15538735773686407
11.447824,6.4461536502771635,0.15520760333546738
11.450216,6.460123029531708,0.15486607386797405
11.452596,6.480051489197259,0.15445465061494562
11.454999999999998,6.506498107781257,0.15394019208796275
11.457384,6.541744525283842,0.15327040870104464
11.459768,6.578294195398542,0.1526173550279918
11.462167999999998,6.618661075550975,0.15195089160119848
11.464552,6.655767928315246,0.1513898441723832
11.466936,6.69152430663916,0.15086615284097574
11.469332,6.726629058657018,0.15033577341518362
11.47172,6.763224054742093,0.14975368237706685
11.4741,6.80037812933461,0.14914576405159724
11.4765,6.843678275793237,0.14841807321125725
11.478888,6.885814939266609,0.14767984602483916
11.481272,6.9193387952764995,0.14705622300215773
11.483668000000002,6.944529383076627,0.14651780967802985
11.486056,6.964924373451002,0.1460626705769802
11.488436,6.975029320839572,0.14580411482839659
11.490832,6.985785894534202,0.1455489025742333
11.49322,6.998684338602108,0.1452466209483335
11.495615999999998,7.010791386737096,0.1449490448412322
11.498012,7.018614694125532,0.14474154712558812
11.5004,7.028440102260382,0.14450289862581303
11.502783999999998,7.036263409648815,0.14430010781462366
11.50518,7.036777162185883,0.14419357975594724
11.507568,7.031611373565665,0.14413009832685753
11.509948,7.020346734907579,0.14413217974929635
11.512344,7.016718412182823,0.14398415957889038
11.514736,7.015511499085061,0.14377979386681494
11.517116,7.014863664494742,0.14354365996800555
11.519512,7.014355599531285,0.1432998355538363
11.5219,7.008120771582294,0.1431396986811056
11.524284000000002,6.99895267732711,0.14302502202004977
11.526675999999998,6.9904362093779815,0.14291276989877502
11.529063999999998,6.983502533294688,0.14279042038590906
11.531448,6.981596772062627,0.14262374629211683
11.533843999999998,6.982204968256181,0.14243568920507285
11.536231999999998,6.988260388181546,0.14218065128571783
11.538612,6.993384642547131,0.14193826376587176
11.541016,7.002233559151827,0.1416461297474505
11.543404,7.012153410943167,0.14133350938911374
11.545784,7.019838844562607,0.14102763219752812
11.54818,7.023799615942935,0.1407733485626813
11.550567999999998,7.029902257696541,0.1404813650471239
11.552948,7.0367962953830645,0.14018301003560693
11.555344000000002,7.046064520868341,0.13987094272007042
11.557732,7.0613390485928695,0.13946537869482042
11.560116,7.076334037063676,0.13908244930356253
11.562512000000002,7.092492508519738,0.1387160751733042
11.564900000000002,7.110745628520835,0.13835253061521552
11.567296,7.128998748521931,0.13798950485243325
11.5697,7.151116300389004,0.1375706086104842
11.572084,7.173094082629218,0.13715947975275608
11.574464,7.1953514041231506,0.13673532272087602
11.576868,7.215327085616947,0.13635583955619932
11.579256,7.236932780804821,0.1359329008353328
11.581636,7.257514762634299,0.13549264360459454
11.584036,7.277073031105382,0.135035638360254
11.586424,7.29863340032288,0.13455127717393908
11.588804,7.31870352547316,0.13410841026942624
11.591208000000002,7.341427377675915,0.13364293067682814
11.593596000000002,7.366944726558006,0.13314644292753
11.595972,7.391391140253457,0.132668022191359
11.598368,7.412484978762133,0.13225342083024372
11.600756,7.437023940256203,0.13181081359166308
11.603136,7.460631736190493,0.13137981855760072
11.605532,7.480375100258811,0.131003070706627
11.607916,7.496393802088016,0.1306718121055474
11.610296000000002,7.511900647238023,0.1303323693215534
11.612704,7.5255451612684725,0.1300134342320856
11.615088,7.538118740112283,0.12971136420117763
11.617468,7.554184663769728,0.12934793954608936
11.619872,7.5725322274273115,0.12894573007692586
11.622256,7.590320712577454,0.12857206481925168
11.624636,7.611042464033791,0.1281610505195042
11.627032,7.626409539556937,0.12783570352200713
11.62942,7.6412175365726425,0.12753975301385345
11.631799999999998,7.655186915827187,0.12728657667064602
11.634204,7.669528382134068,0.12705302088529244
11.636588,7.685220322881309,0.1267901906398312
11.638972,7.698538075829795,0.12653776474017842
11.641368,7.709993497658725,0.12630546327761594
11.643756,7.72345102023407,0.12604807817821193
11.64614,7.739841809115611,0.12575689965662495
11.648536,7.755720741317956,0.12545725578686007
11.650924,7.772810378333799,0.12513604697896588
11.653304,7.791482807215476,0.12481130393706999
11.6557,7.809084300910517,0.124502372344425
11.658088,7.820539722739447,0.12427342413860402
11.660468000000002,7.836790741994129,0.12399352014771796
11.662864,7.857045962741645,0.12366550546021084
11.665252,7.870875572369328,0.1234330411516752
11.667648,7.881492376437097,0.12324794431213776
11.670044,7.890386619012168,0.12307367847301308
11.672432,7.897418530467683,0.12291753211130815
11.674812,7.904729981176919,0.12274713531562609
11.677208,7.910179100766598,0.12259481613577063
11.679596,7.91432496774416,0.1224343380279869
11.681976,7.913954776549692,0.12231223735905838
11.684372,7.911722254235667,0.12220819134459446
11.68676,7.9082790271081445,0.12212618490161359
11.689144,7.906186274420979,0.12201557581239597
11.69154,7.9019516513605375,0.1219358567879679
11.693928,7.8938525964341215,0.12189805636363149
11.696307999999998,7.885613771880846,0.12186638077289293
11.698712,7.875512616208014,0.12185192150496656
11.701096,7.861966337549788,0.1218591508132447
11.703475999999998,7.849490994078201,0.12185097901301109
11.70588,7.8431617224727255,0.12176432452388038
11.708268,7.8315249967623,0.12171671332720424
11.710648,7.815092673626124,0.12171849754004872
11.713044,7.80308386086336,0.12165294233036056
11.715428,7.7936362273544555,0.12153741738637883
11.717812,7.789263730525024,0.12135975550346628
11.720216,7.787172873695729,0.12114581931286346
11.7226,7.789086218359268,0.12088540011567205
11.72498,7.791698411157107,0.12059241428574682
11.72738,7.794031064701226,0.12031187965993248
11.729764,7.798226049364903,0.12001307973067805
11.732148,7.804283365148135,0.1196977295114796
11.734552,7.80833858018495,0.1194042751709947
11.736936,7.809972385594767,0.11915413597503086
11.739316,7.814027600631583,0.11886137055256205
11.74172,7.8210160819745935,0.11853665242618192
11.744108,7.825071297011409,0.1182436180970911
11.746488,7.830057677608002,0.11794212007964315
11.748884,7.83783755488393,0.1176153887103453
11.751272,7.846408828092777,0.11728762500539293
11.753652,7.855911266861402,0.11695382866827148
11.756048,7.8662051015629455,0.11661743112329208
11.758436,7.880503137757323,0.11623581732343964
11.760832,7.891448598764924,0.11590577450787676
11.763228000000002,7.899972650145527,0.11561850059369048
11.765616,7.907285996712631,0.11535473509423705
11.767996,7.913248868839377,0.11511877804368395
11.770396000000002,7.9170698705928455,0.11491210237467263
11.77278,7.92219412495843,0.11471547639033257
11.77516,7.93053118488393,0.11447755389786272
11.777564000000002,7.941941280742486,0.11420492255363585
11.779952000000002,7.952559980668123,0.11393475665625191
11.782332,7.968393586900093,0.11360180006611305
11.784728,7.983575566826006,0.11326268778567465
11.787116,7.994613575632225,0.11297265281431741
11.789496,8.004720418878664,0.1126911673558841
11.791899999999998,8.016829362871523,0.1123878204150205
11.794288000000002,8.030800637983935,0.1120709951739077
11.796668,8.044632143469487,0.11176187008318754
11.799064,8.05380782115615,0.11148896998131065
11.801448,8.058839527723116,0.11126487463161326
11.803832,8.064662630223001,0.1110395018396981
11.806228,8.066341761603194,0.11086266534037797
11.808616,8.069511137050604,0.11065351516535452
11.811,8.075613778804211,0.11041657571936661
11.813392,8.075989657572286,0.11022957856096541
11.81578,8.075434370780584,0.11004978308846732
11.818164,8.073156522496184,0.10987814910021039
11.82056,8.072089379025286,0.10968743433886022
11.822944,8.067809429994469,0.1095372310006981
11.82534,8.061527380217235,0.10940769297354158
11.827736000000002,8.056036726372922,0.10927717135993922
11.830124,8.050126763648027,0.10916522461325615
11.832504,8.049943563908663,0.10900582850627599
11.8349,8.056558062341466,0.10878662152039777
11.837288,8.062101625587632,0.10858026635280639
11.839672,8.066574253647158,0.10838674839387513
11.842068,8.065459888348014,0.10823401143032278
11.844456,8.061040169690338,0.10809016064295045
11.846836,8.063557918831693,0.10788034117354711
11.849232,8.071430343906238,0.10760709435598367
11.85162,8.083586509727338,0.10728539590169588
11.854016,8.10123712110849,0.10689618177330872
11.856412,8.121541459542119,0.10649651012860169
11.8588,8.14012323648305,0.106106072470153
11.86118,8.161498510103316,0.10569361785904707
11.863575999999998,8.185807050029778,0.10525715321549227
11.865963999999998,8.21477141775513,0.10479026052786379
11.868344,8.239591814360788,0.10436758965213071
11.87074,8.267485246899502,0.10391571714383288
11.873128,8.294587283505297,0.10346492552344626
11.875512,8.319826988991537,0.10302780497733582
11.877908,8.342412967425304,0.10260500917006378
11.880296,8.360203348433314,0.10222197246798224
11.882676,8.374269067202212,0.10186652938496361
11.885072,8.389545490784611,0.10149357358799227
11.887456,8.407894950300065,0.10109223554614515
11.889855999999998,8.430900237614411,0.10065984034896067
11.892252,8.456279712727511,0.10022603022088175
11.89464,8.477654986347776,0.09983044383627662
11.89702,8.495817454408128,0.09947294175362426
11.899416,8.509044555415866,0.09915864775579177
11.901803999999998,8.518639541983108,0.09889757134293072
11.904184,8.523299161497738,0.09867669454366244
11.906580000000002,8.528750176945286,0.09845650427120287
11.908968000000002,8.539136559445446,0.0981986584979979
11.911348,8.545658510079633,0.09796870227537424
11.913744,8.548735337728427,0.09775030656685135
11.916132,8.555164740563995,0.09749332410170257
11.918527999999998,8.555448071533455,0.09729071858556734
11.920924,8.556383028808973,0.09709383053501004
11.923312,8.559459856457767,0.09687529876050406
11.925696,8.564538784852976,0.09664083328082616
11.928092,8.570409109181105,0.0964065638144428
11.93048,8.574789189442015,0.09619978894168817
11.932864,8.577818795262566,0.09601499361339287
11.93526,8.5788463003367,0.09584692232543189
11.937644,8.578802870224195,0.09568989423957774
11.940028000000002,8.580621771231247,0.09552291774807961
11.942424,8.58830720485069,0.09531543273093934
11.944812,8.595992638470133,0.09510827691093608
11.947196000000002,8.602979223955275,0.09492815359453405
11.949592,8.609453952761218,0.09473658589706405
11.95198,8.618861947873356,0.09452431643146579
11.954363999999998,8.627199007798856,0.09432312932367728
11.95676,8.629529765485106,0.09416903370432803
11.959143999999998,8.634933559104411,0.09398908146026885
11.961528,8.642571770895609,0.09381663505872581
11.963924,8.651513235298925,0.09365736149210749
11.966312,8.667531937128128,0.09344228514369889
11.968692,8.686344135636666,0.09321396022815912
11.971092,8.706459586757322,0.09299959479966961
11.97348,8.727645973064616,0.09277729937190934
11.97586,8.752045164931824,0.09252703139019232
11.978264,8.782078571985945,0.09221896543797352
11.980648,8.813322683853567,0.0918957120816215
11.983028,8.845358191654107,0.09157440369796428
11.985432,8.879535569827924,0.09123550606309479
11.98782,8.913061321695682,0.09089316542377945
11.990200000000002,8.937367965764274,0.09062305317127806
