Time,Force,Position
10.55282,0.0020901831154813825,0.0
10.555219999999998,0.0042062098598606035,0.0
10.557608000000002,0.005251301417601295,0.0
10.559992,0.005251301417601295,0.0
10.562388,0.0052513014176012954,0.0
10.564776000000002,0.0052513014176012954,0.0
10.56716,0.0052513014176012954,0.0
10.569552000000002,0.0052513014176012954,0.0
10.571936,0.0052513014176012954,0.0
10.574328,0.0052513014176012954,0.0
10.576724,0.0052513014176012954,0.0
10.579108000000002,0.0052513014176012954,0.0
10.581504,0.0052513014176012954,0.0
10.583896,0.0052513014176012954,0.0
10.586284,0.0052513014176012954,0.0
10.58866,0.005251301417601296,0.0
10.591056000000002,0.005251301417601296,0.0
10.59344,0.005251301417601296,0.0
10.595835999999998,0.005137375419638925,0.0
10.598236,0.005137375419638925,0.0
10.600624,0.0031611183021199134,0.0
10.603000000000002,0.0010450915577406913,0.0
10.605396,0.0,0.0
10.607780000000002,0.002116026744379222,0.0
10.610176,0.0054427583022571835,0.0
10.61258,0.009840425046773677,0.0
10.614964,0.013167156604651637,0.0
10.617344,0.01742505372230792,0.0
10.619736,0.020472246026465468,0.0
10.622124,0.023379668703762797,0.0
10.624504000000002,0.02707848731397824,0.0
10.626908,0.02970637073755515,0.0
10.629292,0.03419658528068871,0.0
10.631672000000002,0.03854703019696205,0.0
10.634064,0.042106079180317287,0.0
10.636451999999998,0.04445442335017377,0.0
10.638848,0.04894463789330733,0.0
10.64124,0.05357462206330109,0.0
10.643624,0.058996002166212966,0.0
10.646004,0.062415281522707984,0.0
10.6484,0.06797643125248008,0.0
10.650784000000002,0.07446874654203048,0.0
10.65318,0.07588592515210862,0.0
10.655584,0.07718917776422443,0.0
10.657968,0.07714195593598129,0.0
10.660348,0.07481309410760087,0.0
10.662752,0.07355516746585898,0.0
10.66514,0.07257678007783752,0.0
10.66752,0.07401980231681353,0.0
10.669912,0.072948867130175,0.0
10.672296,0.07029514007770024,0.0
10.674676000000002,0.07085421858514108,0.0
10.677072,0.06861980041324695,0.0
10.679456000000002,0.06438328149493598,0.0
10.681852,0.06082423251158075,0.0
10.684256,0.05924144064574453,0.0
10.68664,0.054751226102610975,0.0
10.68902,0.050121241932617216,0.0
10.691416,0.04546541413372561,0.0
10.6938,0.0446740182008075,0.0
10.696180000000002,0.03911286847103542,0.0
10.698572,0.03262055318148501,0.0
10.700959999999998,0.03120337457140684,0.0
10.703352,0.027784095214911816,0.0
10.705748,0.024504585485277005,0.0
10.708136,0.022435780569140935,0.0
10.710528,0.020366975653004864,0.0
10.712924,0.018225105279727805,0.0
10.715308,0.01380159490631347,0.0
10.717688,0.014685538637848642,0.0
10.720088,0.016221108675441714,0.0
10.722472,0.013034146744423958,0.0
10.724851999999998,0.012148307155019546,0.0
10.727248,0.013544107565752405,0.0
10.729636,0.01826663953436323,0.0
10.732032,0.02036128807939714,0.0
10.734436,0.021359157808894677,0.0
10.736820000000002,0.028363329777642773,0.0
10.7392,0.030737517576397103,0.0
10.741608,0.02952681276289836,0.0
10.743992,0.03173538730589464,0.0
10.746372,0.034875127408669236,0.0
10.748776,0.039737429004140276,0.0
10.751164,0.044599730599611316,0.0
10.753544000000002,0.0475997010755257,0.0
10.755948,0.050879210805160516,0.0
10.758332,0.05136522385546036,0.0
10.760712000000002,0.050227584499102605,0.0
10.763108,0.05016088032938339,0.0
10.765496,0.04744044910718941,0.0
10.767876,0.04485978751185565,0.0
10.77028,0.04485978751185565,0.0
10.772664,0.043489830730020634,0.0
10.775044,0.0419801043213254,0.0
10.77744,0.03725757235271459,0.0
10.779824,0.03439737150366041,0.0
10.782204,0.03339950177416287,0.0
10.784608,0.026395329805414775,0.0
10.786995999999998,0.023255589702640175,0.0
10.789376,0.021838411092562002,0.0
10.791772000000002,0.01962983654956572,0.0
10.794156,0.01649009644679112,0.0
10.796536,0.011627794851320088,0.0
10.798932,0.006765493255849055,0.0
10.80132,0.0037655227799346623,0.0
10.8037,0.0004860130502998504,0.0
10.806096,0.0,0.0
10.808484,0.0,0.0
10.81088,0.0,0.0
10.813276000000002,0.0,0.0
10.81566,0.0,0.0
10.818044,0.0,0.0
10.82044,0.0,0.0
10.822828,0.0,0.0
10.825204,0.0,0.0
10.8276,0.0,0.0
10.829984,0.0,0.0
10.832376,0.0,0.0
10.834772,0.0,0.0
10.837156,0.0,0.0
10.839552,0.0,0.0
10.841956,0.0,0.0
10.84434,0.0,0.0
10.84672,0.0,0.0
10.849124,0.0,0.0
10.851512,0.0011848611846009013,0.0
10.853892000000002,0.002229952742341592,0.0
10.856284,0.005277145046499134,0.0
10.858672,0.006042697350519405,0.0
10.861052,0.006042697350519406,0.0
10.863448000000002,0.009461976707014427,0.0
10.865832,0.013021025690369658,0.0
10.868212,0.01751124023350321,0.0
10.870616000000002,0.022001454776636762,0.0
10.873,0.026631438946630524,0.0
10.87538,0.034753767930260304,0.0
10.877784000000002,0.04087399616747322,0.0
10.880172000000002,0.042570714031271814,0.0
10.882552,0.04519859745484872,0.0
10.884956,0.048617876811343747,0.0
10.887340000000002,0.05110599060806044,0.0
10.88972,0.054525269964555464,0.0
10.892124,0.055802678947773424,0.0
10.894512,0.055802678947773424,0.0
10.896892,0.055802678947773424,0.0
10.899296,0.054617817763172524,0.0
10.90168,0.053572726205431825,0.0
10.90406,0.05052553390127429,0.0
10.906456,0.04975998159725402,0.0
10.908844000000002,0.04975998159725402,0.0
10.91122,0.04634070224075901,0.0
10.913628,0.04278165325740377,0.0
10.916011999999998,0.03829143871427022,0.0
10.918392,0.033801224171136665,0.0
10.920796,0.02917124000114291,0.0
10.923184,0.021048911017513133,0.0
10.925564,0.02904593885596508,0.0
10.92796,0.0646473806900646,0.0
10.930344000000002,0.12198670390742135,0.009734174437151157
10.932724,0.1966422939924902,0.018735507241088516
10.93512,0.2870313590794349,0.02743265421152674
10.937508,0.3932464469668726,0.03591271631265288
10.939904,0.5156124228788976,0.044579788941964675
10.9423,0.663926955463593,0.05289308644178048
10.944684,0.8301621593938152,0.06112198175196709
10.947064,1.0117115294453327,0.06927557533586842
10.949460000000002,1.2039192378192538,0.07750345845847309
10.951848000000002,1.4077617760457308,0.08589992697073034
10.954232,1.632550799722547,0.09419206745342697
10.956624,1.8806151706780827,0.10226075057094272
10.959012,2.141479750329299,0.11032541055042741
10.961408,2.4087189275563654,0.11856847518677373
10.963812,2.68545106426271,0.12699509372220208
10.9662,2.9910455416064448,0.13511986319517622
10.96858,3.316145378019411,0.1430707877178335
10.970976,3.6495784826421387,0.15092584163357328
10.97336,3.963075020405055,0.15884663332691137
10.975744,4.244545529656781,0.16685655091227533
10.97814,4.499250242674018,0.16517937450972353
10.980524,4.735008675129463,0.1642892372173603
10.9829,4.954334784448734,0.16376584725344734
10.985296000000002,5.150804855369864,0.16355458662033406
10.987684000000002,5.332149647482671,0.16309738443425087
10.990076000000002,5.482864211495018,0.16308243567774158
10.992472,5.615518334534979,0.16316148651732126
10.994856,5.732299212946203,0.16335431863794975
10.997236,5.844148516020554,0.16335410448593066
10.999632000000002,5.942268340697315,0.16319190048105764
11.002016,6.01757934880418,0.16317024230896549
11.004412,6.0704989533638605,0.1634023296889268
11.006816,6.116949516691205,0.16357004112535906
11.009204,6.164754346174648,0.16340324134917286
11.011584,6.212053006552502,0.1628260215699812
11.01398,6.22932584330771,0.1625386432968122
11.016364,6.2281642561803245,0.16240081811678037
11.018744000000002,6.222394063082291,0.16229730872894632
11.021148,6.225376447074598,0.1620743794397845
11.023532,6.237623264836444,0.16173708707739853
11.025912000000002,6.248379838531072,0.16144326877265816
11.028308,6.262628757039337,0.16105808636214666
11.030696,6.28833120151866,0.16047359523089214
11.033088,6.325439950140801,0.15972569285825106
11.035492,6.364316586226012,0.1590389013681359
11.03788,6.411154403468649,0.15822805516515584
11.04026,6.459063155897924,0.15739394618902222
11.042656,6.511115879446893,0.1564752587508532
11.04504,6.559164401503029,0.15565652667347665
11.047424,6.613451543223892,0.15475569969823147
11.049824,6.667646137146139,0.15381127351007803
11.052212,6.7188621387918195,0.15283685170132824
11.054592,6.762443720362035,0.15192583405411564
11.056988,6.799227603760084,0.15115789269690025
11.059376,6.824370969731968,0.15064828210219014
11.061751999999998,6.8463015301439345,0.15020154571303745
11.064148,6.86408811943621,0.14983596041807795
11.066536,6.876799572049012,0.14956997866567875
11.068916000000002,6.889371255034954,0.1493162650479174
11.07132,6.905667600260009,0.14900992622786352
11.073704,6.931974449217149,0.14852149690664118
11.076084000000002,6.954836175188897,0.14807540746505618
11.078484,6.9653604314580475,0.14778955651921488
11.080868,6.970717003249109,0.1475642417805899
11.08326,6.976632653547612,0.14730810856921822
11.085656,6.977380619368026,0.14710843194157014
11.088044,6.9758941670165475,0.1469171995822145
11.090424,6.971242130933395,0.14674840675871684
11.09282,6.963936367797767,0.14661154263273435
11.095204,6.953417799102223,0.1465370505434584
11.0976,6.943783174138212,0.14649097387929563
11.099996,6.93452063622654,0.1464631664714011
11.102384,6.926281811673265,0.14645628135389793
11.104764,6.9169720519333495,0.14647039993643976
11.107168,6.910967645551968,0.14645561497240367
11.109552,6.913203959581732,0.146329209244983
11.111932,6.917070287305575,0.14614852071817844
11.114328,6.925499895029692,0.1458673585193496
11.116716,6.933138106820891,0.14559435353673475
11.119096,6.936772117119258,0.14539148606095634
11.121492,6.935191221111291,0.14528508787048122
11.12388,6.932958698797265,0.14517567297674136
11.126259999999998,6.931657342043017,0.14505275172638019
11.128656,6.930076446035051,0.1449454777842363
11.131044,6.931009507452697,0.14481596873589878
11.13344,6.93976398040091,0.14460348702565748
11.135836,6.952754972267432,0.1443522311191707
11.138224,6.963045015253237,0.14417155080679522
11.140608,6.976919950851296,0.14394881407768692
11.143004,6.990794886449353,0.1437271606055052
11.145388,7.009884728353746,0.14341476443027273
11.147768,7.030976671004554,0.14306906827179242
11.150172,7.05355885772258,0.14268115444147939
11.152556,7.077072210000386,0.14228105999644214
11.154936,7.101004871158771,0.14185963826133474
11.15734,7.1193505389584875,0.1415146178500907
11.159728,7.136625271571563,0.14118707879972991
11.162108,7.14668299713189,0.14098402700229704
11.164504,7.15324837787858,0.14085630461048582
11.166888,7.161256780864248,0.14072721151693493
11.169268,7.17392101164881,0.1405381701810024
11.171672,7.19124107023226,0.14029000905571412
11.17406,7.211866482174243,0.1400162289236438
11.17644,7.236496095609061,0.1396822468703048
11.178836,7.259403147551184,0.13936978844687048
11.181224,7.279144615761632,0.1390800402252631
11.183604,7.2932990906134085,0.13886006065534223
11.186008,7.311085679905685,0.13856081743211396
11.188396,7.3272894773321235,0.13827253583523644
11.190776,7.345355605878121,0.13796402681514727
11.193180000000002,7.36062823774478,0.13769361837399755
11.195568000000002,7.376832035171219,0.1374135085357941
11.197948,7.389031631104824,0.13719132668765915
11.200344,7.403512867038565,0.13692783121606802
11.202728,7.4218585348382815,0.13661794040485659
11.205112,7.445930965623529,0.13623876821406183
11.207508,7.473448519394169,0.1358296584674103
11.209892,7.507112145030921,0.13532552487130414
11.212272,7.5453390506679465,0.13473714293284475
11.214676,7.582122934065997,0.13415125896815205
11.217064,7.614390759292011,0.133616723877378
11.219444,7.642654383025195,0.13314209064595844
11.22184,7.667193344519267,0.1327089693997549
11.224228,7.6869367085875835,0.13233793025972904
11.226624,7.702815640789927,0.13201577414482044
11.229024,7.7124087314993,0.13178948197658844
11.231412,7.72386415332823,0.131540670628997
11.233792,7.735971201463217,0.13129730530968484
11.236196,7.751011515904398,0.13101893342913534
11.23858,7.761675541800408,0.13077895496309816
11.24096,7.770057927696283,0.13058041713517257
11.243364,7.778300543965295,0.13038975324419633
11.245752,7.789336656913643,0.13016745166461582
11.248132000000002,7.800372769861992,0.12994817783886795
11.250536,7.8048907238918925,0.12979998691458067
11.25292,7.8048926197497615,0.12969500550594268
11.255300000000002,7.8074556948614875,0.12953801736151827
11.257696,7.808156438853656,0.12940076943980175
11.260084,7.80727439097999,0.12927002669036966
11.262464,7.808813752733323,0.12909484613287436
11.264868,7.810492884113513,0.1289128769000306
11.267256,7.8138945769863986,0.1287189201253785
11.269636000000002,7.822650945792478,0.12844646832425932
11.272032,7.832757789038918,0.1281450744925488
11.27442,7.847288142658768,0.1277748679406075
11.2768,7.868755964077649,0.12731842208418065
11.279196,7.893296821429589,0.12682301496965084
11.281584,7.913321620609497,0.126367161893752
11.283964,7.9249659297514,0.12599422746727618
11.286360000000002,7.9408939796398545,0.12556003788330422
11.288748000000002,7.957241338408891,0.12510546473875092
11.291128,7.968793099752175,0.12470140530169888
11.293524,7.982626501095598,0.12426123436652621
11.295912,7.989010577960792,0.1238933574382157
11.298292,7.995254885199126,0.12353037209629865
11.300692000000002,7.998146617250685,0.12321931111791651
11.30308,7.99554390374219,0.12299448346473928
11.30546,7.990799319860419,0.12280085564604092
11.307856,7.981770995232094,0.12267019168054381
11.31024,7.971252426536549,0.12257476852652363
11.312636,7.963527354520341,0.12245187154736506
11.315032,7.955430195451795,0.12231166948328659
11.317419999999998,7.9442600004501935,0.12221093589265342
11.3198,7.93481236694129,0.12209879158848692
11.322196000000002,7.9200100574991925,0.12206227896875523
11.324584000000002,7.903624956191259,0.12202924546221668
11.326964,7.88351519264421,0.12202977354637567
11.32936,7.866059156149635,0.12201106754799464
11.331748,7.853910573760011,0.12195365787174106
11.334128,7.8390610424896705,0.12195138142911977
11.336532000000002,7.826213611965745,0.12192481044577977
11.338920000000002,7.819372483681071,0.12182769320238745
11.3413,7.8077357579706455,0.12177927948707765
11.343696,7.80168602561889,0.12167952581382066
11.346084,7.799780264386828,0.12152627797868885
11.34848,7.805091510207517,0.12128120017459734
11.350876,7.81375533121498,0.12098462696678164
11.35326,7.828704993715416,0.12060687475854884
11.35564,7.847007231402625,0.12017690017648577
11.358044,7.863726677223999,0.11975179289260958
11.360432,7.875510755992762,0.11938172522947935
11.362812000000002,7.883942259574748,0.11906167577783731
11.365212,7.891582367223817,0.1187437223098579
11.3676,7.894566647073993,0.11846761561976323
11.369980000000002,7.903557229163422,0.11812236384254177
11.372384,7.912128502372269,0.1177970834578181
11.374772,7.92335350263359,0.11745357815362491
11.377152,7.937791308454827,0.11706868809389845
11.379548,7.94985492647731,0.1166890670238348
11.381936,7.958333651887538,0.11633381291811523
11.38432,7.961597470991436,0.11604457832464883
11.386712,7.962067793416,0.115780695939519
11.3891,7.970266979572508,0.11544033231015083
11.391476,7.977535000169238,0.11510898691196018
11.393872000000002,7.979727884086498,0.11483687002184645
11.396260000000002,7.978056336137783,0.11460381164994708
11.398656,7.975453622629289,0.11437899824359189
11.40106,7.967775772441323,0.11421237283585371
11.403444,7.962611879678973,0.11403558613371882
11.405828,7.95823938284954,0.11385725094623331
11.408232000000002,7.958662483445859,0.11363466168380483
11.410616,7.962298389602094,0.11336985522085041
11.412996,7.965654756504609,0.11311718332608917
11.415400000000002,7.973946490459736,0.11281424574648037
11.417788000000002,7.978373792548888,0.11254895413988814
11.420168,7.9830806338917615,0.11227154519145248
11.422572,7.985925144115078,0.11200931829500635
11.424956000000002,7.982763352099144,0.11181028392402077
11.42734,7.984257387882101,0.11157497443618038
11.429732,7.992828661090948,0.11126404164401299
11.43212,8.007266466912185,0.11089626745872348
11.4345,8.024497769412758,0.11050836610055197
11.436896,8.037724870420496,0.11016582342465159
11.43928,8.048810101054958,0.10984902339691047
11.441664,8.06455115948831,0.10949650867721139
11.44406,8.081083613854581,0.10914338679099637
11.446448,8.097336528967132,0.10880323509204276
11.448828,8.11545177519924,0.10844976829428715
11.451224,8.129702589565373,0.10813194326819986
11.453612,8.14195130318509,0.10783364777009716
11.455992000000002,8.15205814643153,0.10756249530412548
11.458392,8.164167090424387,0.10727329521700124
11.460776,8.177346969603882,0.10697122241435722
11.463159999999998,8.187314043223461,0.10670869740691769
11.46556,8.198072512775958,0.10644541873695315
11.467944,8.208551443074736,0.106194667660244
11.470328,8.221823870052846,0.10592474935304731
11.472732,8.240962829643351,0.10560353833797043
11.475116,8.258099688487437,0.105304414293681
11.4775,8.271883972144748,0.10505077172193379
11.479896,8.286878960615555,0.10478185481547526
11.48228,8.298800913153308,0.10454451860765288
11.484660000000002,8.307929369011726,0.10432613039307317
11.487056,8.322272731176476,0.10405399120775465
11.489444,8.335033301475391,0.1037839738960673
11.49184,8.346722936587668,0.1035259361249653
11.494236,8.358412571699944,0.10326814679494327
11.496624,8.368100106065803,0.10302877540229237
11.499004,8.381000445991578,0.10275470424508179
11.5014,8.396973821850409,0.10245102355613427
11.503788,8.41350627621668,0.10212487246494664
11.506168,8.427617320955953,0.10183532199310262
11.508564,8.441728365695226,0.10154634915060559
11.510948,8.456910345621138,0.1012457046800506
11.513332000000002,8.474373965547189,0.10091777120184756
11.515736,8.493839686219655,0.1005739463908257
11.51812,8.509440975026147,0.10025962134145114
11.520500000000002,8.520898292712946,0.09998672793112516
11.522896,8.530493279280186,0.09972576818357422
11.525284,8.541019431407209,0.09945967500583132
11.527664,8.547541382041393,0.0992287594376702
11.530064,8.55499449823536,0.0989920860382772
11.532448,8.565101341481798,0.0987441561945394
11.534848,8.571203983235403,0.09853096522974962
11.537244,8.57716685536215,0.09832375161305344
11.539632,8.583921123421817,0.09811643736382752
11.542012,8.59202586592184,0.09788753143792406
11.544408,8.601201543608502,0.09764753704163255
11.546796,8.608095581295025,0.0974361972587749
11.549176,8.615920784541327,0.09722081415834445
11.551572,8.622395513347273,0.09702749399436095
11.55396,8.630220716593573,0.0968127908186569
11.55634,8.640187790213151,0.09657772410875554
11.558736,8.65108602939251,0.09633819812184177
11.561124,8.656909131892395,0.09614109751265436
11.56352,8.657145241033612,0.09597463289541276
11.565916,8.658312515734604,0.09580252161694681
11.5683,8.658688394502681,0.09562952816225562
11.570684,8.659064273270758,0.09545627762085582
11.57308,8.657717590546136,0.09528791552694986
11.575468,8.658233238941074,0.09510935903503087
11.577848,8.65874888733601,0.09493086712095142
11.580244,8.65661080867847,0.09476209285084576
11.582632,8.654472730020933,0.09459303306143366
11.585012,8.650612089870698,0.09442835914047154
11.587408,8.649452398601179,0.09422092122111102
11.589796,8.645079901771748,0.09404492625331679
11.592192,8.63791390826298,0.09388347413508097
11.594592,8.630096288448154,0.09371577514390952
11.596976000000002,8.619205632700275,0.0935739948972675
11.59936,8.610456847325672,0.09341118029008261
11.601764,8.599566191577788,0.09326902801361524
11.604148,8.584391795083352,0.09316811745956223
11.606528,8.567215297842502,0.09308215630185727
11.608932,8.551109735788287,0.0929855347660748
11.61132,8.540730936719605,0.09285368096882365
11.6137,8.535706813584113,0.0926704057239184
11.616096,8.535106200822037,0.09244079778306646
11.618480000000002,8.535436753619738,0.09220634165642068
11.620864,8.53697801123094,0.0919562479612785
11.623260000000002,8.53772787290922,0.09170590661721909
11.625648000000002,8.54103891384136,0.09142014650702006
11.628028,8.547283221079699,0.0911152457981785
11.630424,8.557531729810869,0.09078271790575955
11.632812,8.572575835967791,0.09042368048812797
11.635192,8.582125496564657,0.09011952356593791
11.637595999999998,8.59488796272144,0.08978617223260692
11.639984000000002,8.612306256677117,0.0894308968502604
