Time,Force,Position
12.754008,0.10338871546517242,0.0
12.756403999999998,0.11394497430620555,0.0
12.758791999999998,0.12464100277409892,0.0
12.761176,0.13319516086871522,0.0
12.763571999999998,0.14109769265727362,0.0
12.765959999999998,0.14699812369941517,0.0
12.76834,0.15289855474155672,0.0
12.770735999999998,0.16187202171675366,0.0
12.773123999999996,0.17312712869208785,0.0
12.775504,0.18810689790653534,0.0
12.7779,0.2033662063747032,0.0
12.780288,0.2218383204027867,0.0
12.782668,0.23268744189603222,0.0
12.785064,0.23645932596338867,0.0
12.787452,0.23743771335141015,0.0
12.789832,0.2385558703662918,0.0
12.792232,0.23259678995528438,0.0
12.79462,0.23450634290308414,0.0
12.797015999999998,0.23734706141066222,0.0
12.799411999999998,0.2404673191719608,0.0
12.801799999999998,0.24959387917250986,0.0
12.80418,0.2612816184269167,0.0
12.806584,0.2760423936143789,0.0
12.808972,0.2941557439886168,0.0
12.811351999999998,0.31585398697510786,0.0
12.813752,0.33727269070787846,0.0
12.81614,0.3557581281344539,0.0
12.818519999999998,0.3662351625753619,0.0
12.820916,0.375361722575911,0.0
12.823303999999998,0.37969268515070825,0.0
12.825687999999998,0.3846752740315635,0.0
12.828084,0.38430318697922594,0.0
12.830472,0.3870041358599439,0.0
12.832852,0.3924985814199968,0.0
12.835252,0.3969220917934111,0.0
12.83764,0.3999951277264665,0.0
12.84002,0.4012058325399653,0.0
12.842411999999998,0.3984123358606303,0.0
12.844799999999998,0.3906834721286833,0.0
12.84718,0.3788106372770424,0.0
12.849576,0.35791711362196144,0.0
12.851964,0.33567311552652146,0.0
12.854359999999998,0.31021631187116594,0.0
12.856764,0.2835488034023117,0.0
12.859148,0.25394802862726223,0.0
12.861532,0.22829280597618062,0.0
12.863928,0.20557084963129424,0.0
12.866312,0.18871542589879817,0.0
12.868695999999998,0.16878696623324674,0.0
12.871092,0.14947623444400202,0.0
12.873475999999998,0.12923433709497897,0.0
12.875856,0.11113431011923296,0.0
12.878251999999998,0.09289451351662673,0.0
12.880639999999998,0.07479448654088071,0.0
12.88302,0.05869656031155153,0.0
12.885415999999998,0.0436695692688609,0.0
12.887804,0.03157584453236545,0.0
12.890199999999998,0.01948211979586999,0.0
12.892596,0.011392596552208237,0.0
12.894984,0.0063761092416018605,0.0
12.897363999999998,0.0063761092416018605,0.0
12.899764,0.006376109241601861,0.0
12.902152,0.006376109241601862,0.0
12.904531999999998,0.006376109241601862,0.0
12.906936,0.006376109241601862,0.0
12.90932,0.004712197117771291,0.0
12.911704,0.0030482849939407206,0.0
12.9141,0.00045320731033182964,0.0
12.916484,0.0,0.0
12.918867999999998,0.0,0.0
12.921264,0.0,0.0
12.923647999999998,0.0,0.0
12.926031999999998,0.0,0.0
12.928427999999998,0.0,0.0
12.930811999999998,0.0,0.0
12.933192,0.0006855247358090986,0.0
12.935596,0.001231279844757987,0.0
12.937983999999998,0.004850070886762258,0.0
12.940364,0.006466761182349677,0.0
12.942759999999998,0.007431825171879195,0.0
12.945147999999998,0.013472025840880947,0.0
12.947544,0.016439190576827318,0.0
12.94994,0.01940635531277369,0.0
12.952328,0.02051118892916342,0.0
12.954707999999998,0.02051118892916342,0.0
12.957112,0.021336483291832728,0.0
12.9595,0.02244131690822246,0.0
12.96188,0.02244131690822246,0.0
12.964283999999996,0.02244131690822246,0.0
12.966668,0.02244131690822246,0.0
12.969052,0.02247521533797366,0.0
12.971448,0.023580048954363386,0.0
12.973832,0.023580048954363386,0.0
12.976216,0.02358004895436339,0.0
12.978612,0.023844368951722615,0.0
12.980996,0.02700616096765658,0.0
12.98338,0.03863909496234323,0.0
12.985776,0.055435921719380686,0.0
12.98816,0.0920629727697448,0.0
12.990543999999998,0.14800839143423794,0.009178451336451449
12.99294,0.2080014417040694,0.018286825920644203
12.995328,0.2829837928711018,0.027103558267246065
12.997707999999998,0.36876425198739815,0.035968405119647606
13.000104,0.4720932953968838,0.044664334172577175
13.002491999999998,0.5982669496638857,0.05277730306464856
13.004888,0.7298048115468337,0.06107083589305308
13.007284,0.8700461328340117,0.06940903495221619
13.009668,1.0250311141944215,0.07760693559247737
13.012052,1.1946786353700685,0.08572523148689738
13.014456,1.378337070054895,0.09377438905408696
13.01684,1.5752283457144747,0.10170230881377607
13.01922,1.7763070226062532,0.10977957111224393
13.021616,1.991198194011485,0.11779681703284138
13.024004,2.2218700622468353,0.1256688780515767
13.026383999999998,2.469456003583548,0.13330172707140373
13.028784,2.7225836123085574,0.14081232780407793
13.031168,2.970964741293926,0.14826043207944317
13.033547999999998,3.2125991856511087,0.15564861905309668
13.035956,3.4340313186626266,0.16305881763225646
13.038344,3.6320011129403222,0.16139288792224551
13.040724,3.8193578948659876,0.15985937889347293
13.04312,3.993867246267729,0.1586366061923741
13.045508,4.158417107481369,0.1573001018281162
13.047888,4.307327937349617,0.15607508591895997
13.050288,4.428120600685153,0.15555577086034184
13.052672,4.548310755400743,0.15474095453195663
13.055056,4.660169537764439,0.1538845408847862
13.05746,4.754245522551601,0.1532776298106622
13.059844,4.831796636403968,0.15278944575728548
13.062224,4.895988463053214,0.15237313720992293
13.064624,4.945143766977015,0.15216554898387005
13.067008,4.996490058960206,0.15165223659558064
13.069392,5.040855453031863,0.15107694651284917
13.071788,5.0657154880342885,0.15072036188019278
13.074176,5.072465964378214,0.15062170549702936
13.076555999999998,5.07009177657946,0.15064529740101876
13.078956,5.069068063221064,0.1506179660560899
13.081344,5.06804434986267,0.15059055576216748
13.083723999999998,5.068743197996971,0.15053785429571725
13.08612,5.077031140236358,0.1503301858910016
13.088508,5.091185615088136,0.14999519062316327
13.090904,5.111299170350922,0.1495817822014725
13.093299999999996,5.129875259718245,0.1492838730969072
13.095688,5.148124588003605,0.14906341807859777
13.098068,5.176988824498864,0.14866792330802278
13.100464,5.200358615434071,0.14843020041142604
13.102852,5.226382133421751,0.14815403971294602
13.105236,5.2592033495815995,0.14773066567796506
13.107632,5.296959932794061,0.14720238778321892
13.110016,5.335135824887103,0.14664661508715252
13.112396,5.377874996980419,0.1459581037996758
13.114796,5.409952039035594,0.14549956845814135
13.11718,5.43537115254546,0.14517842483644317
13.119564,5.4666567986677155,0.14473424032124654
13.12196,5.497662905536251,0.14430546225322693
13.124348,5.528109933897347,0.14391459820124042
13.126744,5.55199158151175,0.14370050298567927
13.129139999999998,5.578899043230965,0.14347808219835667
13.131527999999998,5.609251627935573,0.14321339304209735
13.133912,5.634808615214429,0.14304098151144973
13.136307999999998,5.653847443574837,0.14298320064778533
13.138692,5.670000227457295,0.1429350911150503
13.141076,5.692346305034106,0.14270700567807187
13.143472,5.7166019355587165,0.14239898511302948
13.14586,5.735317794552899,0.1421356144450896
13.14824,5.755431349815685,0.14177895478668787
13.150639999999996,5.773450256533437,0.14142563909083872
13.153028,5.788955205825574,0.1411013663187517
13.155412,5.804460155117711,0.1407838047258366
13.157811999999998,5.819033938850071,0.14048216196297367
13.160196,5.830674456276234,0.14023461407019625
13.162576,5.848181506314786,0.13988181392936552
13.164979999999998,5.86647995228626,0.13952237106570722
13.167367999999998,5.87970326157826,0.13926191733471982
13.169748,5.893485649377701,0.13896329175977104
13.172143999999998,5.908106654938302,0.13860899864983836
13.174528,5.924637213446704,0.13817363598182794
13.176912,5.933346360424541,0.137834654278391
13.179315999999998,5.93702759255115,0.13754685512849926
13.181699999999998,5.942338838371836,0.13719719456828858
13.18408,5.950071493819522,0.13677983267221056
13.186476,5.951797847027956,0.13647725366477287
13.188864,5.948029754676337,0.13630476840181252
13.191244,5.939558612697585,0.13625380870421389
13.19364,5.931459557771172,0.13622510513268626
13.196028,5.92065955396404,0.13628032176295385
13.198423999999996,5.911442342022742,0.13632351700537584
13.200819999999998,5.9040874612010015,0.13633758537604138
13.203203999999998,5.891936982953508,0.13643027827828688
13.205588,5.880997209519516,0.13648975966196358
13.207983999999998,5.871547680152742,0.13649874222247638
13.210371999999998,5.858653027800574,0.13654432541145547
13.212752,5.844455122836291,0.13658190814040552
13.215147999999996,5.833889332312506,0.1365240942536659
13.217536,5.823323541788718,0.13646600180408008
13.21992,5.81354914719785,0.13640254017495884
13.222315999999998,5.805497314099679,0.13632011467177743
13.224704,5.798469194359901,0.1362646057683109
13.227084,5.793395953538298,0.13622178903142984
13.22948,5.788415260515312,0.13621956220124593
13.231868,5.783155028238605,0.13623538897408907
13.234252,5.78362155894743,0.13615802570416916
13.236648,5.783296693723335,0.1360854955426095
13.239032,5.787535108499515,0.13590103791820407
13.241431999999998,5.793915393648974,0.1356701981547784
13.243828,5.800994526932731,0.13539240609946704
13.246211999999998,5.804628537231096,0.13515417089801066
13.248596,5.807471151596544,0.13492246443636263
13.250991999999998,5.808311665215574,0.13472566200082745
13.253379999999998,5.805147977341771,0.13460343969648023
13.25576,5.800494045400748,0.13453212091436714
13.258159999999998,5.797562674952422,0.13444184472756868
13.260547999999998,5.798867823422406,0.13430930981958428
13.262928,5.799334354131232,0.13423180963557357
13.265332,5.801523446332752,0.13413587258341791
13.267715999999998,5.799848106668298,0.13410429602218163
13.270096,5.794168565511011,0.13414659512966765
13.272491999999998,5.794123239540639,0.13405551696680904
13.274876,5.793845596144787,0.13393243369738514
13.27726,5.796268901629653,0.13372770797530678
13.279655999999996,5.798831976741382,0.13351397115364527
13.28204,5.80209389998741,0.13325725665781776
13.284435999999998,5.806147219166356,0.13299570905362998
13.286827999999998,5.810572625397639,0.1327586958692515
13.289215999999998,5.811645456442147,0.13259704188204716
13.291596,5.81402154009877,0.13244475778697087
13.293991999999998,5.815978314874813,0.13231891986040056
13.296379999999996,5.8156534496507195,0.13224676378497624
13.298775999999998,5.8218467433450725,0.13208084491175826
13.301172,5.827760497785706,0.13193067692597063
13.303556,5.835164496293559,0.13173124765251062
13.305936,5.840845933308715,0.13154999801737896
13.30834,5.844665039204314,0.1313971719166846
13.310728,5.850626015473191,0.13120048556390357
13.313107999999998,5.853513955809013,0.13106131714473057
13.315504,5.859195392824169,0.13088091093312434
13.317892,5.867949865772379,0.13064144222641008
13.320271999999996,5.873211993906955,0.13048924808004478
13.322676,5.880056913907368,0.1303289769961548
13.325064,5.887413690586978,0.13018509110000973
13.327439999999998,5.89262859689331,0.13008430993219608
13.32984,5.8972844246922005,0.13002046769676323
13.332223999999998,5.9022197917448125,0.12993918941058022
13.334604,5.90343049655831,0.12990885263984955
13.337004,5.91092704286478,0.12975901870070047
13.339387999999998,5.918842898051831,0.1295839265469458
13.341768,5.928109227679241,0.12936974880807453
13.344172,5.939657197306786,0.1291044078440594
13.346559999999998,5.949762144695359,0.1288410978121117
13.348943999999998,5.968806660629375,0.1284355183790515
13.35134,5.986640471749892,0.12806171122090948
13.353723999999998,6.0063366139899665,0.12766435552461622
13.356108,6.0267316043643415,0.12722821402452505
13.358503999999998,6.042470766939825,0.12685159869349372
13.360887999999996,6.061422735075226,0.12641282916852578
13.363283999999998,6.085310070263236,0.1259040947924954
13.36568,6.107474843958551,0.1254117529221209
13.368068,6.12819659541489,0.12491564775164417
13.370447999999998,6.149849512431007,0.12441212394280124
13.372844,6.166846601648231,0.12396853426813753
13.375232,6.187475805305953,0.12344022571105588
13.377612,6.203309411537924,0.12297743448186488
13.380016,6.219934413702812,0.12251349347049242
13.382404,6.239772221427616,0.12198992164864586
13.384783999999998,6.255745597286446,0.12152628419488694
13.38718,6.271718973145276,0.12106588153381327
13.389568,6.287692349004106,0.12060674057321544
13.391951999999998,6.305807595236213,0.12011527098994286
13.394348,6.325645402961016,0.11961640046838937
13.396736,6.337474807700152,0.11923861230549443
13.399119999999998,6.349304212439289,0.11886128899046183
13.401516,6.362623861245645,0.11844549665561173
13.403904,6.3763155971043375,0.11805510093475102
13.406283999999998,6.398807131881616,0.11755496638440308
13.40868,6.422509371472394,0.11703488878327994
13.411067999999998,6.439833221771582,0.11658007175093585
13.413451999999998,6.457948468003689,0.11612332268763104
13.415848,6.482861412407965,0.1155892858193355
13.418231999999998,6.508193665692821,0.1150388829878616
13.420632,6.535388250097235,0.11446824937923922
13.423028,6.566539814166237,0.11389984696014857
13.425412,6.601276270847495,0.11329914056082065
13.427791999999998,6.634941792342113,0.11271701999442434
13.430192,6.670981501635485,0.11213803619712584
13.432576,6.70487934055558,0.1115906133235919
13.434959999999998,6.734633208355983,0.11110007864070845
13.437356,6.7656903287685,0.11062358928094464
13.439744,6.795396974740658,0.11018569271931498
13.442123999999998,6.820168253660205,0.1098082224323093
13.44452,6.849223273326305,0.10936698064161547
13.446908,6.878929919298465,0.10893271892063162
13.449304,6.910731213815656,0.10851806415499772
13.4517,6.942392738705989,0.10811485829572946
13.454088,6.9665577172898505,0.10782460864251522
13.456468,6.989744308485691,0.10758705944468493
13.458868,7.016887879346123,0.10734524061866037
13.461252,7.044543306885752,0.1071168709536454
13.463636,7.069777324798384,0.1069384031430166
13.466039999999998,7.091239458643659,0.10683303063630448
13.468427999999998,7.113213449168132,0.10674083345521666
13.470808,7.129740215960796,0.10669031224948862
13.473204,7.149479788313375,0.10659791569421846
13.475592,7.1713612310392305,0.10647790694206778
13.477976,7.188726615593055,0.10638980052743643
13.480368,7.208885496826215,0.10627896463535132
13.482756,7.2359818458584035,0.10609616149453131
13.485136,7.2628458774651135,0.10588886134612364
13.487539999999996,7.28663687313877,0.10571769637524661
13.489928,7.311219264745343,0.1055442097145845
13.492308,7.331378145978502,0.1054344924252269
13.494704,7.350745631278744,0.10532557573949673
13.497092,7.358519820981066,0.10532538742777629
13.499472,7.363500514004052,0.10534762755296045
13.501868,7.371182155907755,0.1053143927260983
13.504256,7.374767048520008,0.1052912153680353
13.506636,7.375186357400589,0.10527094402531574
13.509032,7.375233579228832,0.10523114596764176
13.51142,7.368622872511767,0.10525027117605767
13.513816,7.362571244302142,0.10524257078849317
13.516211999999998,7.354424967547484,0.10522348686418517
13.518599999999998,7.34348519411349,0.10522714069221561
13.52098,7.323885391387771,0.10531250225608046
13.523376,7.302423257542496,0.1054114228986337
13.525764,7.280029958137442,0.10551849454557904
13.528148,7.257124802053192,0.10561156143855364
13.530544,7.231565918916466,0.1057169860321809
13.532932,7.208009136526157,0.10579798318652206
13.535312,7.18380072782979,0.10587381430165704
13.537712,7.162293268014141,0.10589404962333153
13.540096,7.145349088198765,0.10584497234182952
13.54248,7.130034922077471,0.10575459257461205
13.544876,7.122217302262645,0.10556659535271166
13.547264,7.112025494649066,0.10537918808073046
13.549644,7.098109024796371,0.10522019622534434
13.55204,7.087405360503594,0.10501829042776248
13.554428,7.0779124010243155,0.10479503968247543
13.556812,7.069769915985395,0.10454422416551129
13.559208,7.068053042066307,0.10420934886675387
13.561596,7.0655447722143,0.10387372395573664
13.563992,7.065829999041627,0.10351658127927978
13.566392,7.069048492175153,0.10312998675031956
13.568775999999998,7.079344222734564,0.10266464312531479
13.57116,7.089639953293976,0.10220006249100198
13.573555999999998,7.101286158293748,0.1017066032193012
13.575943999999998,7.112001197733741,0.10122073915803403
13.578324,7.1177808701211225,0.10078269533550603
13.580723999999998,7.114481204336197,0.10044166147438852
13.583111999999998,7.114673883364908,0.10004490892016896
13.585496,7.114447253513037,0.09967026975911446
13.587891999999998,7.111287357354973,0.09932400841194579
13.590279999999998,7.102912554890576,0.09903821375970313
13.592663999999996,7.095468917985957,0.09874577548860153
13.595059999999998,7.091470404066731,0.09843854222256848
13.597443999999998,7.091848178692676,0.09811086938910887
13.599828,7.092086183691763,0.09779047482180575
13.602223999999998,7.09018231831757,0.0974965515666593
13.604611999999998,7.089069848876297,0.0972043233771818
13.606992,7.082602703501829,0.09697808344253314
13.609395999999998,7.079068824433558,0.0967254396619874
13.611783999999998,7.073532844618869,0.09649239738815439
13.614164,7.068928030363958,0.0962532461385625
13.616564,7.063392050549271,0.09602114869814285
13.618951999999998,7.0549228044283865,0.0958136288346065
13.621332,7.0469654149867,0.09561954998493806
13.623727999999998,7.040590817410852,0.09542634480015948
13.626115999999998,7.038872047633894,0.09520157434395035
13.628496,7.045021911215742,0.0949055547995745
13.6309,7.048191286663155,0.09467616040975568
13.633288,7.048287626177512,0.09447863240329357
13.635671999999998,7.047033491251509,0.09430688688360202
13.638068,7.051506119311033,0.09409068586819654
13.640456,7.052346632930064,0.09393355450490477
13.642836,7.055468786549232,0.09374459852575429
13.64524,7.054866277929286,0.09358023292997858
13.647628,7.05384446042876,0.0934360889743537
13.650007999999998,7.056407535540487,0.09327449519998654
13.652404,7.053476165092163,0.09318328455950013
13.654792,7.053617830576892,0.09306006849750718
13.657171999999996,7.054550891994539,0.0929381863645594
13.659567999999998,7.0542732485986885,0.09283530153117217
13.661955999999998,7.0533439788967796,0.09272520471355827
13.664339999999996,7.048922364381234,0.09266621605467712
13.666735999999998,7.0465028506121055,0.092588352828542
13.669123999999998,7.045154272029614,0.09249794146307867
13.671504,7.0430142975142065,0.09240682044788591
13.673908,7.042224797439159,0.09229029883750348
13.676291999999998,7.041714836617831,0.0921612732582924
13.678672,7.042043493557664,0.09199232721417473
13.681076,7.044653790497635,0.0917918835751528
13.683464,7.051408058557298,0.09154929469010395
13.68584,7.057370930684044,0.09130733356261593
13.688248,7.068968017997702,0.09099269291950768
13.690632,7.077212530124585,0.09072168908762035
13.693011999999998,7.0874591429978855,0.09043280618800699
13.695416,7.09584342475163,0.0901539562814955
13.697804,7.102365375385816,0.08988706941092456
13.700183999999998,7.11116896602014,0.08958775227945942
13.702588,7.120903722214242,0.08928401503391228
13.704976,7.126774046542371,0.08900891015273903
13.707351999999998,7.135577637176695,0.08871071377172866
13.709752,7.14275121411694,0.08845068088664301
13.712136,7.150204330310904,0.08817585986160392
13.714515999999998,7.160311173557344,0.08789217308721128
13.716912,7.16641381531095,0.08764275809002804
13.7193,7.171305752251056,0.08741179134603702
13.721679999999996,7.172984883631249,0.08721738880176773
13.724075999999998,7.170380274264886,0.08707068151193652
13.726459999999998,7.170010083070418,0.08693459481869706
13.728856,7.171502222995507,0.08678866273908227
13.73126,7.16992132698754,0.0866714310637455
13.733648,7.166198560606296,0.08657735060279029
13.736028,7.160985550157833,0.08651429209032953
13.738431999999998,7.158845575642426,0.086423625892727
13.740816,7.161640968179629,0.08629672839493896
13.743196,7.1696512670231645,0.08612108269532592
13.745596,7.1767304003069246,0.08595012590404685
13.747984,7.188884670270155,0.0857381454777155
13.750364,7.199968005046746,0.08553786821501395
13.752767999999998,7.216778102808868,0.08530479914662031
13.755152,7.234659135757629,0.08506271982069691
13.757536,7.2538906431467485,0.08479718650973243
13.759931999999996,7.278848913521398,0.08449996524899901
13.762316,7.303946953522908,0.08419945506017522
