Time,Force,Position
13.535112000000002,0.008649230152676511,0.0
13.537492,0.009601306841814207,0.0
13.539888,0.011764088344450646,0.0
13.542276,0.014997805033725617,0.0
13.544656,0.019162687282778906,0.0
13.547052,0.024398504718470725,0.0
13.54944,0.029634322154162545,0.0
13.55182,0.03487013958985436,0.0
13.55422,0.04010595702554618,0.0
13.556604,0.045062235207517586,0.0
13.558988,0.05015828301634919,0.0
13.561384,0.05818759713137597,0.0
13.563772,0.0682190119928196,0.0
13.566152,0.08132346278731861,0.0
13.568552,0.09214627358168037,0.0
13.57094,0.1028293147491819,0.0
13.57332,0.11151025517026658,0.0
13.575716,0.11514236961076281,0.0
13.578108,0.11728423998403986,0.0
13.580488,0.11407143442412429,0.0
13.582884,0.11551445666310028,0.0
13.585272,0.11560700446171734,0.0
13.587652,0.11344422295908091,0.0
13.590052,0.11021050626980594,0.0
13.59244,0.10604562402075265,0.0
13.59482,0.10080980658506083,0.0
13.597216,0.095573989149369,0.0
13.599604,0.09033817171367718,0.0
13.602,0.08510235427798538,0.0
13.604396,0.08014607609601397,0.0
13.606784,0.07505002828718237,0.0
13.609168,0.06702071417215559,0.0
13.611564,0.05698929931071196,0.0
13.613948,0.04388484851621294,0.0
13.616332,0.033062037721851185,0.0
13.618728,0.022378996554349658,0.0
13.621112,0.013698056133264972,0.0
13.623492,0.009021317205013993,0.0
13.625892,0.005555283090261753,0.0
13.62828,0.004231119348786575,0.0
13.63066,0.0010446244877547568,0.0
13.633064,0.0,0.0
13.635452,0.0,0.0
13.637832,0.0,0.0
13.640232,0.0,0.0
13.64262,0.0,0.0
13.645,0.0007650852340343364,0.0
13.6474,0.0007650852340343363,0.0
13.649788,0.0015301704680686728,0.0
13.652168,0.00243502532896322,0.0
13.654564,0.00243502532896322,0.0
13.656952,0.00243502532896322,0.0
13.659336,0.00243502532896322,0.0
13.661732,0.00243502532896322,0.0
13.66412,0.00243502532896322,0.0
13.6665,0.0037591890704383978,0.0
13.668896,0.008016619118108748,0.0
13.671284,0.013205214725557416,0.0
13.67368,0.018673349586726506,0.0
13.676076000000002,0.026003815567452234,0.0
13.678464000000002,0.03412567748109607,0.0
13.680848,0.04210776976787971,0.0
13.683244000000002,0.052231732427940394,0.0
13.685632000000002,0.06128475990136255,0.0
13.688012,0.06633358588195101,0.0
13.690408,0.07031147667590094,0.0
13.692796,0.07380382148953696,0.0
13.69518,0.07899241709698565,0.0
13.697576000000002,0.08220522265690122,0.0
13.699964,0.0851384889630964,0.0
13.702348,0.0886970708764657,0.0
13.704744000000002,0.09039332167027836,0.0
13.707132,0.09316050765072953,0.0
13.709512,0.0948567584445422,0.0
13.711908,0.09485675844454218,0.0
13.714296,0.093532594703067,0.0
13.71668,0.08927516465539666,0.0
13.719076,0.08408656904794799,0.0
13.721464,0.0786184341867789,0.0
13.723844,0.07128796820605317,0.0
13.72624,0.06588227872887889,0.0
13.728628,0.06457144268528614,0.0
13.731012,0.07443080164329473,0.0
13.733408,0.10356130638718915,0.0
13.735796,0.1550832146782679,0.009410818479873878
13.73818,0.22359652461296448,0.018014564240988337
13.740576,0.29974235876525246,0.026770250790663558
13.742964,0.38589490493388623,0.03554779761969178
13.745348,0.4902948835300105,0.044039139179835735
13.747748,0.6133616034342058,0.0521885053946106
13.750136,0.7580755527809104,0.059881228778917994
13.75252,0.9207120693310111,0.06736744003545671
13.754916,1.0886994700985662,0.0750692628391788
13.757304,1.267484978815385,0.08290424501837755
13.759684,1.4639325307533697,0.09070311772102434
13.76208,1.6748103050811143,0.09842318326332031
13.764468,1.8997462147462816,0.10604688028936851
13.766864000000002,2.131942561576703,0.11375364560174621
13.76926,2.3760551733712703,0.121435703367334
13.771648,2.632363589383703,0.12907366640722207
13.774028,2.897966541580298,0.13658371925243173
13.776424,3.1703690878069315,0.14391874203800328
13.778816,3.4235004882476785,0.1513315500796798
13.781196,3.65396284174539,0.15876691232703946
13.783596,3.8661777628156115,0.15678123254649626
13.785984,4.058840102988357,0.15571773705432204
13.788364,4.246383876369126,0.15444869047990567
13.79076,4.421267210681075,0.1531830312271029
13.793148,4.575017068087581,0.15225231146679477
13.795532,4.704373421200485,0.15179770423772337
13.797928,4.804213911512073,0.1520148752551255
13.800316,4.88743508723238,0.15248403161238416
13.802696,4.966236544295013,0.15268480194605225
13.805096,5.038663403781795,0.1526471182960278
13.807484,5.0955437797218055,0.15261240291961664
13.809868000000002,5.138505789951253,0.15266982973510299
13.812264,5.1687129174553945,0.15282819014109195
13.814652,5.197805679660392,0.152745549861762
13.817032,5.215261716154964,0.15266640414074528
13.819432,5.218939156565834,0.15264731729731199
13.82182,5.209534953169434,0.15278562927842948
13.824204000000002,5.187234201562998,0.15315868651644873
13.8266,5.172894631113985,0.15340497738561487
13.828988,5.16516576738204,0.1535698591522989
13.831372000000002,5.152641306224339,0.15383947943867168
13.833768,5.144260816186335,0.15400730919332226
13.836156,5.136392182827527,0.15418483984365766
13.838540000000002,5.137183578760445,0.15417733770365163
13.840936,5.142351263238535,0.1541004680610044
13.843324,5.1555273507022905,0.153833861375285
13.845708000000002,5.178713941898133,0.1533175902303654
13.848104,5.202180072347695,0.1527760813428433
13.850492,5.2265773683570345,0.1522261811049134
13.852872,5.248693024366238,0.1517548506298316
13.855268,5.271460306681497,0.15129014383628858
13.857656,5.291713631571142,0.15085536095153712
13.86004,5.3114550997815915,0.15040921266891738
13.862436,5.32290862575265,0.15017476180749043
13.864824,5.333151446910212,0.14997862412727828
13.867204,5.3432544984409125,0.14979089929001635
13.869604,5.353078010717894,0.14962179473675552
13.871992,5.368907825234125,0.14931344584896225
13.874372,5.386739740496774,0.14896689483976952
13.876767999999998,5.4045716557594226,0.1486267717039514
13.879156000000002,5.430132434754017,0.1481246119695734
13.88154,5.457602766696413,0.14753952504945764
13.883936,5.47897424860094,0.1470452443765476
13.886324000000002,5.490474996400243,0.14676834314776752
13.888704,5.49983387382627,0.14654458510652754
13.891104,5.50760995938646,0.1463371296556102
13.893492000000002,5.512732317894175,0.14617061642586404
13.895876,5.516411654162915,0.14600670895898094
13.898272,5.517949120058376,0.14589744842578584
13.900664,5.517624254834283,0.14582143163108555
13.903044,5.512783331438157,0.14581848512232676
13.90544,5.510363817669028,0.14574214938153157
13.907832,5.505150807220564,0.1457163366217439
13.910216000000002,5.505152703078434,0.14556642688989932
13.912616,5.509438339682858,0.145311014260717
13.915,5.517867947406975,0.14496054626918706
13.917392,5.527275942519114,0.14453884063982464
13.919796000000002,5.533890440951918,0.14417147263677732
13.92218,5.5354298027052495,0.14391647937883137
13.92456,5.534315437406107,0.14370041828013916
13.926964000000002,5.530687114681349,0.14351315397257064
13.929348,5.521983655277119,0.14343245088188317
13.931728,5.5182155629255005,0.14325430704601705
13.934124,5.520453772813132,0.1429537282085461
13.936508,5.527767119380238,0.14254780732060615
13.938888,5.533729991506983,0.1421864193042705
13.941292,5.544628230686341,0.14173293333639989
13.943676,5.558319966545034,0.14123327034336225
13.946056,5.570428910537891,0.14074499573259674
13.94846,5.586542056023582,0.1401809817666973
13.950848,5.604377763001969,0.13958889464415725
13.953228,5.621002765166857,0.13903166957912313
13.955632,5.64084057289166,0.13839857357189086
13.95802,5.659467675802965,0.13780846017252943
13.9604,5.673811037967716,0.13732038030713195
13.962803999999998,5.682799724199274,0.13695360342191445
13.965188,5.690158396736752,0.13664737896778087
13.967568,5.695375198900955,0.13638992251975582
13.969972,5.702873641065294,0.13607441263317574
13.972360000000002,5.708090443229495,0.1358152997708396
13.97474,5.712748166886256,0.1355949117442799
13.977144,5.724203588715187,0.1352528606074441
13.979532,5.735519240917256,0.13492447658613624
13.981908,5.745763957932687,0.1346245639617839
13.984316,5.754006574201702,0.13436597274047263
13.9867,5.763320125657354,0.13408415859732992
13.989084000000002,5.764765043754198,0.13394193816021865
13.991476,5.767141127410821,0.1337868751602162
13.993864,5.7713795421870016,0.1336045371625482
13.996244,5.768680489164152,0.13354539004879665
13.998636,5.772639364686612,0.13338259615136092
14.001024,5.778320801701768,0.13320194594897108
14.003404,5.786004339463341,0.1329881599310803
14.0058,5.789171819052883,0.13283141016752567
14.008188,5.792479068269285,0.13266510371296317
14.010568,5.8007216845383,0.1324135138199061
14.012964,5.8141792071136456,0.13206031380917377
14.015352,5.8280560385695726,0.1316785720081776
14.017732,5.841932870025499,0.1312998957482081
14.020136,5.860465529280318,0.13085381458343207
14.02252,5.878067022975358,0.13041994682148655
14.0249,5.8883117399907885,0.13013414314141344
14.027296,5.893621089953608,0.1299321910563706
14.029684,5.893855303236954,0.1298235200299748
14.03208,5.891807876520162,0.12976861077955015
14.034476000000002,5.890272306482569,0.12972744592494453
14.036864,5.894463499430507,0.12959711386831405
14.039244,5.896792361258887,0.12949403013497007
14.04164,5.899772849393325,0.12939636368849172
14.044024,5.909271496446213,0.12920645763456012
14.046404,5.914905711633126,0.12908039445077518
14.048808,5.923752732379954,0.12889223107420655
14.051192,5.9303181131266465,0.1287572667913647
14.053576,5.943541422418645,0.12852819878897642
14.055972,5.957556127643563,0.1282950566482317
14.058356,5.968777336189146,0.12809988141541048
14.06074,5.977577135107732,0.1279655845110443
14.06314,5.987680186638434,0.1278413392898344
14.065528,5.995222058915277,0.12778388328305224
14.067908,6.003834866378759,0.12770735963770563
14.070304,6.0164518753350755,0.12756763439394314
14.072692,6.036285891344141,0.12730350429430856
14.075088,6.05984456959232,0.12698948733176954
14.077484000000002,6.089549319706607,0.12656992122674254
14.079872000000002,6.122466875380813,0.12609091769994893
14.082248,6.15473280474896,0.12560824939277987
14.084652000000002,6.1829945326242735,0.12518998710196647
14.087040000000002,6.212978821992282,0.12475941479843745
14.08942,6.240588923561538,0.12434055663947595
14.091824,6.267547398824735,0.12392323222047191
14.094208000000002,6.291572607781736,0.12354813163266298
14.096588,6.309172205618908,0.12329332788878654
14.098992,6.327702969015857,0.12302930122106154
14.10138,6.34330046610661,0.12281122860881409
14.10376,6.359968898384004,0.12257481513467867
14.106156,6.378499661780953,0.12231687340329632
14.108543999999998,6.396518568498705,0.12204659362202096
14.110928,6.416167488910536,0.1217275307074391
14.113324,6.439448523762862,0.12132838183329875
14.115708,6.4591446660029375,0.12096733950304431
14.118092,6.474976376377038,0.1206595005532518
14.120496,6.485732950071665,0.12043039639633411
14.12288,6.497839998206654,0.12016894713315751
14.12526,6.50422028335611,0.11997816898584258
14.127664,6.508458698132291,0.11982457722324182
14.130052,6.5157701488415265,0.11962622541783709
14.132432,6.527365340297316,0.11935660055399791
14.134828,6.533373538394435,0.11914686861786129
14.137216,6.541104297984254,0.11892501715994934
14.139596,6.544970625708096,0.1187517010368298
14.141992000000002,6.551118593432076,0.11853444341359465
14.144380000000002,6.563040545969828,0.11820537288547418
14.146764,6.569655044402633,0.1179203597540433
14.149159999999998,6.571613715036546,0.11768478582944546
14.151548000000002,6.575993795297455,0.1174002321435805
14.153928,6.580513645185224,0.11710924162983788
14.156324,6.585964660632772,0.1168094204952786
14.158712,6.586759848281428,0.1165584440075806
14.161092,6.583550834437252,0.11636169365987643
14.163488,6.578060180592939,0.11620667694056026
14.165876,6.5736404619352635,0.11603396274701465
14.16826,6.566986325105692,0.11585877003747999
14.170664,6.556607526037009,0.11572262479928071
14.173048,6.5500931588343,0.11553905427898403
14.175428,6.541064834205975,0.11536891350457351
14.177824,6.528311847338539,0.11523752466314864
14.180212,6.513556759724684,0.11513248580729891
14.182608000000002,6.503737039163441,0.11496343829733036
14.185004,6.491263591549723,0.11481528249307092
14.187392,6.479721309495784,0.1146570889570083
14.189772,6.470041358561401,0.11447920792378746
14.192168,6.4532841702011305,0.11439847800501725
14.194556,6.439180708893334,0.11429674596271018
14.196936,6.429733075384429,0.11414644820999842
14.199332000000002,6.413859830755693,0.11410057662107939
14.201720000000002,6.397055420567179,0.11406336692501969
14.2041,6.381461715192164,0.11399954744634459
14.206500000000002,6.369033593548821,0.11392895631586118
14.208884,6.359538738211672,0.11382205081758964
14.211264,6.3563297243674945,0.11361993126122166
14.213664,6.352980940896457,0.11342556009499238
14.216048,6.35507938115723,0.11318254317653757
14.218448,6.361182022910835,0.11288755040508812
14.220844,6.3663534991046635,0.11260278785888521
14.223228,6.375109867910743,0.11228838617526223
14.225612000000002,6.382236223022745,0.11202042594332998
14.228016,6.388012103694389,0.11178466520341056
14.2304,6.39471914992581,0.11154151982041538
14.232784,6.4040799232097045,0.11127866693903968
14.235184,6.4163739627997955,0.110981949517007
14.237572,6.424244492016472,0.11076006394994367
14.239952,6.439704115338236,0.11045882693510374
14.242348,6.459028170525973,0.11011623310450853
14.244732,6.4763501249672935,0.10979943602391024
14.247112,6.497816050528307,0.1094226468797786
14.249508,6.518350810529542,0.10905531024425336
14.251892000000002,6.531528793851167,0.10879525371095679
14.254276,6.545265855680234,0.10850609409890723
14.256672000000002,6.557140586389743,0.10823552655080919
14.259056,6.56487134597956,0.10802475037687921
14.261451999999998,6.571391400755878,0.10783754019776154
14.263848,6.580053325905472,0.10762105288005448
14.266232,6.586433611054929,0.10744538051730307
14.268616000000002,6.595467623256861,0.10725354250226343
14.271012,6.604501635458793,0.10706275150290359
14.2734,6.616096826914583,0.10681768090684357
14.27578,6.631975759116926,0.10651153448567047
14.278184,6.643990259453298,0.10624618934384805
14.280572,6.65535313348361,0.10597549468112494
14.282948,6.664853676394366,0.1057225594496673
14.285343999999998,6.67691539855898,0.10541605174474403
14.287732000000002,6.681388026618506,0.10518144331792288
14.290116,6.6810650572522805,0.10499447040212678
14.292512,6.683954893445971,0.10476237695909466
14.294900000000002,6.682700758519968,0.10458319163791001
14.297296,6.683029415459801,0.10440290358092405
14.299692,6.691506245012162,0.10412218835049956
14.30208,6.6987723697510235,0.10386502812229227
14.30446,6.707761055982581,0.10359992802269302
14.306864,6.717401368520197,0.10334112394407884
14.309252,6.728531925125033,0.10304507607370553
14.311632,6.73258524430398,0.10283381889912548
14.314028,6.738640664229342,0.10260088457854026
14.316416,6.739900486728953,0.1024139432804211
14.318796,6.741300078855424,0.1022204989763961
14.321192,6.742140592474455,0.10205596173104672
14.323584,6.740047839787291,0.10192177586303837
14.325959999999998,6.7438216197125165,0.10172965008920729
14.328368,6.751971688182913,0.10151742722360377
14.330752,6.757840116653171,0.10134025256845029
14.333132,6.762218301056212,0.10119848994372835
14.335536,6.774045809937479,0.10099921346482496
14.337924,6.789458211431,0.10077835165945657
14.340304,6.801797576991464,0.10059428108109639
14.3427,6.819491618485121,0.10033943293270034
14.345088,6.839467299978916,0.10005233395206029
14.347468,6.857440880726294,0.09978961917565263
14.349872,6.878347727779867,0.09950184358342816
14.35226,6.900325510020078,0.09920302031837559
14.354644,6.924073075581229,0.09885816138220943
14.35704,6.948472267448437,0.09852221093234642
14.359428,6.9776670567413985,0.09814587369101922
14.361808,7.004999514914803,0.09778563917189047
14.364211999999998,7.035684548274983,0.09737916781750232
14.366600000000002,7.063296545702106,0.09700587142073998
14.36898,7.094400887942867,0.09658259689433416
14.371376,7.126576165370266,0.09614891579565563
14.373764,7.153816075745055,0.09576429381662299
14.376144,7.172675496081835,0.09543731248863088
14.37854,7.1979605275384495,0.09503549579683489
14.380928,7.229950709368614,0.09454920099674279
14.383312,7.254631336347412,0.09410583583895059
14.385708,7.274144278848122,0.09367821841563134
14.388096,7.294867926162331,0.09323172551163847
14.390476,7.315591573476538,0.09279041539757496
14.392876,7.3297970618722985,0.09239072250268437
14.39526,7.342279988775362,0.09199705688988183
14.397644,7.350386627133252,0.09162055003021871
14.40004,7.357050243252168,0.09123794097109696
14.402428,7.364645024930863,0.09085281078007826
14.404808,7.37293865474386,0.0904378978417232
14.407212,7.382070902318016,0.08998862287190985
14.409596,7.393484789892311,0.08951259405876097
14.411976,7.405178216720325,0.08902728042030846
14.41438,7.421574693175474,0.0884797659389642
14.416764,7.4322444066450934,0.08796967645233035
14.419144,7.440260393062238,0.08746857031452003
14.42154,7.4496268539197406,0.08694416616979259
14.423928,7.463137285896938,0.08637973061776939
14.42632,7.471712350821524,0.08585545506067971
14.428716,7.471999473506721,0.08540783782458818
14.4311,7.478153128804308,0.08491970795677346
14.43348,7.491895878206983,0.08438996973810382
14.435884,7.50470746204988,0.08386528174323993
14.438268,7.512304139586444,0.08338764329095225
14.440648,7.527489911228093,0.08286943245330369
14.443048,7.541464978056246,0.08236659509864755
14.445432,7.5560916711904555,0.08187072413859131
14.447812,7.568436724324527,0.08140211588878592
14.450216,7.57449593596563,0.08098998139243914
14.452604,7.577202572419956,0.08061569890559567
14.454984,7.573204058500729,0.08031557516086646
14.45738,7.561988537528753,0.0800749043460281
14.459768,7.547140902116284,0.07988313240122673
14.462144,7.529592317823093,0.0797358292415817
14.464544,7.517770496515434,0.07955730891013713
14.466928,7.508183093379669,0.07939062678677186
14.469324,7.499107546923101,0.07923808378512737
14.471728,7.489752461212813,0.07909737519508506
14.474116,7.484122037741639,0.07894117199649456
14.476496,7.482495815763297,0.0787571126054864
14.478888,7.478727723411679,0.07859318485788011
14.481272,7.4700242640074475,0.07846026327561033
14.483656,7.461832661282416,0.07834128875572627
14.486052,7.460718295983274,0.07817290994717593
14.488436,7.452386923631383,0.07805978481310938
14.490832,7.444846947212407,0.07794863503374413
14.493227999999998,7.4390295322861295,0.07783609154781317
14.495612,7.435586305158607,0.077730429623135
14.497992,7.436798905829975,0.07760621570648635
14.500396,7.440525463926957,0.07748296103012535
14.502784000000002,7.449466928330272,0.07731704472908213
14.505164,7.460922350159201,0.07715008310756932
14.507568,7.475450807921186,0.07695977970360472
14.509956,7.490119035310032,0.07676387647360541
14.512336,7.498361651579046,0.07662674477583802
14.514732,7.503950540795585,0.07649447875242615
14.517116,7.504743832586372,0.07638628417824837
14.519496,7.506468289936937,0.07627468076430627
14.521892,7.502046675421393,0.07620922861733401
14.52428,7.493201550532433,0.07618860818427703
14.52666,7.4843564256434725,0.0761677130049194
14.529064000000002,7.474300595941015,0.07616253445388303
14.531452000000002,7.467317802171611,0.07613420026920384
14.533832,7.454188936536098,0.0761509917689364
14.536228,7.443201941273862,0.07614884883992346
14.538612,7.435287981944681,0.07612374380289336
14.540992,7.424580525936165,0.07610912792618993
14.543392,7.413081673994732,0.07609204681720959
14.54578,7.403864462053435,0.07604958383092639
14.548176000000002,7.391993523059663,0.07601144825929564
14.550572,7.3784925703718125,0.07600671119104457
14.552956000000002,7.369275358430515,0.07596411545933568
14.555336,7.356845340929303,0.07594985484100304
14.55774,7.341993913801093,0.0759667485946935
14.560128,7.332217623352355,0.07594826932318842
14.562508,7.322161793649896,0.07594202837202572
14.564912,7.315039230253633,0.0759191032026933
14.567296,7.304564091670595,0.07593138781583267
14.569676,7.296882449766891,0.07593319934588753
