Time,Force,Position
13.59724,0.16344810684054784,0.0
13.599635999999997,0.1494334016156299,0.0
13.602023999999997,0.1374207971371288,0.0
13.604404,0.13090263821868056,0.0
13.606807999999996,0.12210283930009505,0.0
13.609191999999997,0.11409443631442762,0.0
13.611572,0.10289800920163938,0.0
13.613967999999996,0.095146705074244,0.0
13.616356,0.0858126090810124,0.0
13.618735999999998,0.07726990902069893,0.0
13.621128,0.06993791377388418,0.0
13.623516,0.06274568815392965,0.0
13.625912,0.05555346253397512,0.0
13.628303999999996,0.04943217210065911,0.0
13.630692,0.041169011294066034,0.0
13.633072,0.03276608086061276,0.0
13.635475999999995,0.026505020800436544,0.0
13.637863999999997,0.02117512630003865,0.0
13.640244,0.016916166986279287,0.0
13.642647999999998,0.01545070435185488,0.0
13.645031999999995,0.011191745038095516,0.0
13.647416,0.00986605203053132,0.0
13.649811999999995,0.008400589396106918,0.0
13.652199999999995,0.0037223212017669194,0.0
13.65458,0.0013256930075641942,0.0
13.656975999999997,0.0,0.0
13.659363999999997,0.0,0.0
13.661744,0.0016052322612846147,0.0
13.66414,0.004141630082347549,0.0
13.666528,0.005746862343632164,0.0
13.668907999999998,0.005746862343632164,0.0
13.671308,0.0057468623436321645,0.0
13.673692,0.0057468623436321645,0.0
13.676075999999998,0.0057468623436321645,0.0
13.678479999999997,0.0057468623436321645,0.0
13.680864,0.0057468623436321645,0.0
13.683248,0.0057468623436321645,0.0
13.685643999999996,0.0057468623436321645,0.0
13.688032,0.0057468623436321645,0.0
13.690416,0.0057468623436321645,0.0
13.692811999999996,0.0057468623436321645,0.0
13.6952,0.0057468623436321645,0.0
13.69758,0.0057468623436321645,0.0
13.699976,0.005746862343632165,0.0
13.702364,0.005746862343632166,0.0
13.704759999999997,0.005746862343632166,0.0
13.707155999999998,0.005746862343632166,0.0
13.709539999999995,0.004141630082347551,0.0
13.711924,0.0016052322612846149,0.0
13.714319999999995,0.0,0.0
13.716703999999996,0.0,0.0
13.719088,0.0,0.0
13.721483999999997,0.0,0.0
13.723868,0.0,0.0
13.726247999999998,0.0,0.0
13.728644,0.0022568585673425146,0.0
13.731027999999998,0.004513717134685029,0.0
13.733424,0.009983381261943135,0.0
13.735819999999997,0.019597016508895154,0.0
13.738207999999997,0.030561126196206122,0.0
13.740588,0.04152523588351709,0.0
13.742991999999996,0.05141841038418954,0.0
13.745379999999995,0.05958902339216554,0.0
13.74776,0.06869080195991988,0.0
13.750155999999995,0.07579047978125736,0.0
13.752543999999997,0.07916549536348155,0.0
13.754924,0.08668448206539967,0.0
13.757319999999996,0.08926810171470576,0.0
13.759704,0.09171195173715163,0.0
13.762099999999997,0.09508696731937583,0.0
13.764504,0.09552871659540485,0.0
13.766892,0.09583069624457366,0.0
13.769271999999996,0.09599290626688227,0.0
13.771667999999998,0.09629488591605109,0.0
13.774055999999998,0.09831942705791633,0.0
13.776432,0.09794734000557885,0.0
13.77884,0.09569048143823633,0.0
13.781223999999998,0.09022081731097822,0.0
13.783607999999996,0.08060718206402619,0.0
13.786012,0.06964307237671523,0.0
13.788396,0.05867896268940426,0.0
13.790775999999996,0.05011148119629602,0.0
13.79318,0.045920288248358955,0.0
13.795568,0.03893559862108693,0.0
13.797952,0.03716581530014735,0.0
13.800348,0.04191419089765601,0.0
13.802736,0.04023695537533348,0.0
13.805115999999998,0.0444262524654013,0.0
13.807519999999997,0.04875531918232933,0.0
13.809904,0.05122205477970072,0.0
13.812283999999998,0.05662205668326728,0.0
13.814687999999997,0.06430369858697112,0.0
13.817075999999997,0.07212511011753515,0.0
13.819456,0.07952721276751856,0.0
13.821852,0.08148209168569227,0.0
13.824236,0.08236603541722745,0.0
13.826619999999998,0.08499498103690745,0.0
13.829016,0.08499498103690745,0.0
13.831404,0.08499498103690745,0.0
13.833783999999998,0.08499498103690745,0.0
13.83618,0.08499498103690745,0.0
13.838568,0.08366928802934326,0.0
13.840947999999996,0.07968986796930431,0.0
13.843348,0.07757277902882201,0.0
13.845736,0.0722428845284241,0.0
13.848115999999996,0.06411949334869123,0.0
13.850516,0.05827774216909565,0.0
13.852904,0.05150482542972174,0.0
13.855283999999996,0.04473190869034784,0.0
13.857679999999998,0.038890157510752255,0.0
13.860063999999998,0.033856555085915445,0.0
13.862443999999996,0.04287919214063201,0.0
13.864848,0.07024180942145608,0.0
13.867235999999998,0.10844975647978718,0.010150641699681912
13.869615999999995,0.1584814207036468,0.01997128983317808
13.87202,0.21642514839881827,0.03004991904426082
13.874408,0.286190697401649,0.04010315831743683
13.876787999999998,0.3841421793030164,0.04893109686207696
13.879184,0.5030420425125923,0.05714188278003936
13.881571999999998,0.6373505154999498,0.06503580898640268
13.883951999999995,0.7770570945330045,0.07312701517856465
13.886347999999998,0.9199726874102364,0.08161953612263366
13.888731999999996,1.0777831375281828,0.09005489302899247
13.891115999999997,1.2496045011553087,0.09839049428791925
13.89352,1.430967941947826,0.10669544120344938
13.895903999999998,1.6189401935995393,0.11507541680163216
13.898283999999997,1.81584822208096,0.12355760519901432
13.900679999999998,2.0285822733628733,0.13197148050423857
13.903067999999998,2.2560260862882675,0.1402479033044992
13.905463999999998,2.4965515430209315,0.1483150827989787
13.907867999999995,2.7425074706635653,0.15625550241983555
13.910255999999997,2.964071789870467,0.16431773236395614
13.912636,3.1619886747463117,0.17249131559476485
13.915039999999998,3.3552988495093765,0.1704045626775
13.917423999999995,3.5509851079290655,0.16845104093045582
13.919804,3.746535388437633,0.1660435918255404
13.922207999999998,3.931941083160863,0.16354287512139457
13.924595999999998,4.086622106127147,0.16234862466519137
13.926976,4.2170021725984475,0.16187473767012803
13.929371999999995,4.330203845971027,0.1618054315767575
13.931759999999995,4.440661140350382,0.16148945085103625
13.93414,4.5571285286847285,0.16053375870291897
13.936543999999998,4.660982699778497,0.15956698872404262
13.938931999999998,4.755062476281396,0.15864224697480428
13.941311999999996,4.8472818175226084,0.1576447641419693
13.943715999999998,4.936057931636296,0.1565456376829135
13.946103999999998,5.014175707427581,0.15536744913223202
13.948483999999995,5.075815834112316,0.15425432659835422
13.950879999999998,5.12167526396693,0.15330534617852404
13.953267999999998,5.15589607225325,0.15256203637380186
13.955647999999997,5.18560082236754,0.15192218852664033
13.958043999999996,5.2267118766246465,0.15108228964923273
13.960431999999996,5.273689463494143,0.1500922398705771
13.962812,5.311495164392716,0.1492895173955721
13.965215999999998,5.337055943387312,0.14875937684484292
13.967603999999998,5.3562836590606935,0.1484581129301283
13.969983999999997,5.372763204025112,0.14831235660260247
13.972379999999998,5.392408332721205,0.14812977124475787
13.974767999999996,5.420061864402966,0.14775902272037614
13.977148,5.449857266458001,0.14732336882555505
13.979543999999995,5.482446165192374,0.14684818822994608
13.981931999999995,5.504745020940942,0.14663729734313596
13.984312,5.522388048890617,0.1465145836611639
13.986707999999997,5.532209665309729,0.14650651520599184
13.989095999999996,5.53234753907872,0.14664591585420111
13.991476,5.534394965795511,0.14669803064440243
13.993879999999995,5.542728234005272,0.14660424350345272
13.996267999999995,5.548407775162559,0.1465486048088539
13.998648,5.553156150760068,0.14650852833768424
14.001051999999998,5.556973360797799,0.1464850521459823
14.003439999999998,5.563444297888004,0.14642349575272978
14.005819999999996,5.56856476053785,0.14640852482008393
14.008219999999998,5.5740573102400335,0.14641667861897867
14.010603999999995,5.583181974382713,0.1463187474186948
14.012987999999996,5.5932850259134135,0.14615104960994962
14.015383999999996,5.604226695205277,0.1459254467087727
14.017771999999995,5.614796277444802,0.1456750162098465
14.020152,5.6257851685649065,0.14539240602844797
14.022547999999995,5.625879612221394,0.14528742193734273
14.024935999999997,5.628814774385459,0.14508198917132406
14.027316,5.623509216138379,0.14501366072750643
14.029715999999995,5.616341326771742,0.1449785339136523
14.0321,5.6112680859501385,0.14494336524953724
14.034484,5.610710903300567,0.14483465425944464
14.036879999999996,5.610013951024135,0.1447352511168421
14.039267999999996,5.603170926881593,0.14477675485805414
14.041648,5.589343213111778,0.14501604919847247
14.044044,5.580822953446913,0.14517566902741055
14.046432,5.577657369715241,0.14520223283482978
14.048816,5.572397137438534,0.1452292817172048
14.051212,5.558244558444625,0.14539292637672704
14.0536,5.5445112883312975,0.14552348125748685
14.055979999999998,5.528543600046075,0.14566326777222946
14.058376,5.512855451014572,0.1457809744126456
14.060764,5.499448941983207,0.14583580903169754
14.063159999999996,5.485902663324983,0.14589915042852147
14.065555999999996,5.477803608398567,0.14587592465789723
14.067943999999995,5.475571086084542,0.1457392757274258
14.070324,5.48251044974144,0.14545489024728037
14.072727999999998,5.487307943025062,0.1452237640343534
14.075115999999998,5.4955505592940765,0.14494837525431134
14.077495999999996,5.50938016892176,0.14457902872461606
14.079891999999996,5.522046295564188,0.1441911681011629
14.082279999999995,5.531546838474943,0.14382672859784074
14.084663999999997,5.544679495826196,0.1433567378578382
14.087059999999996,5.557812153177447,0.14288373752433142
14.089447999999996,5.578581126462029,0.14222663690414575
14.091828,5.598978012694273,0.14155476693279767
14.094223999999995,5.609504164821294,0.14107269834614417
14.096611999999997,5.619890547321454,0.14059683453344782
14.098992,5.635724153553425,0.14003118289433097
14.101387999999996,5.64713424941198,0.13957840529851717
14.103775999999996,5.659847597882652,0.1391320689517399
14.10616,5.671862098219022,0.1387362646232087
14.108555999999997,5.681175649674674,0.13843112715222855
14.110943999999996,5.690628970757187,0.13811807027364162
14.113324,5.698359730347003,0.13783133421785804
14.115727999999995,5.700084187697569,0.1376657352971983
14.118115999999995,5.693567924636991,0.13762593950876548
14.120496,5.683466768964159,0.13763715224130085
14.122891999999997,5.6760665621720445,0.13756006507852367
14.125276,5.666152397954316,0.1375082507232808
14.127671999999995,5.660894061535479,0.13738227661275518
14.130067999999998,5.661874344781369,0.13717353252568654
14.132455999999998,5.66015367914654,0.13704972988435474
14.134839999999995,5.659224409444631,0.1369206012133255
14.137235999999998,5.655594190862005,0.13687643252498655
14.139623999999998,5.6532672248914935,0.13684068766063698
14.142003999999996,5.658529353026069,0.13668307497254656
14.144399999999996,5.668167769705818,0.13647402614838863
14.146783999999997,5.678597582318481,0.13626169462961604
14.149168,5.693450905304562,0.13594817802251355
14.151563999999995,5.707652601984583,0.13563004988706345
14.153951999999997,5.720923133104826,0.13532504769752518
14.156332,5.7363355345983456,0.13497307180603882
14.158727999999996,5.749466296091728,0.13467640060396355
14.161115999999996,5.759384252025195,0.13445017373638204
14.163511999999995,5.773026870197776,0.13416866142670938
14.165907999999998,5.793559734341142,0.13380788855930267
14.168295999999998,5.820051678895517,0.13338628855060686
14.170679999999996,5.841840573822755,0.1330881510168042
14.173075999999998,5.866702504683048,0.13273507512167806
14.175463999999998,5.889143025916346,0.13245078231009375
14.177843999999997,5.904506309723753,0.13229804862189704
14.180248,5.922151233531298,0.13209099332332325
14.182631999999998,5.940495005473143,0.13183924716718207
14.185011999999997,5.955161337004119,0.13159360580569937
14.187407999999998,5.965963236669122,0.13141180596491966
14.189795999999998,5.977836071520762,0.13121021756138979
14.192179999999995,5.985612157080952,0.13103951131335134
14.194575999999998,5.9931559252156665,0.1308395769585755
14.196963999999998,6.000420154096659,0.13065952125782185
14.199343999999996,6.009267174843488,0.13047190593206417
14.201743999999998,6.02225816671001,0.13020987394252503
14.204131999999998,6.032595431524058,0.12997630463735296
14.206515999999995,6.04735620671152,0.12965129761925684
14.208911999999998,6.0651900178320375,0.12927267768689535
14.211299999999998,6.078228231526803,0.12896416982017908
14.213683999999995,6.089311566303395,0.12864239887996398
14.216088,6.09457559029584,0.12836468068432152
14.218471999999998,6.102540563169002,0.1280110245963532
14.220851999999995,6.104639003429776,0.12774848053042037
14.223247999999998,6.103432090332015,0.12750844301549852
14.225635999999998,6.104786356488112,0.1271990996755734
14.228015999999997,6.10628039227107,0.12688244342227525
14.230411999999998,6.1113593206662795,0.12652863194422767
14.232799999999996,6.116251257606388,0.1262294598864149
14.23518,6.119280863426938,0.1259525981936865
14.237575999999995,6.120308368501072,0.12570989481037592
14.239963999999995,6.125572392493515,0.12543308824638977
14.242348,6.130928964284578,0.12519712123846857
14.244743999999995,6.131210399396169,0.12504594835933627
14.247127999999996,6.131911143388339,0.12486997871988005
14.249523999999996,6.127676520327897,0.12477011433108823
14.251919999999998,6.125304228387013,0.12464645148222618
14.254307999999998,6.117856799766655,0.12460675384027174
14.256687999999995,6.110688910400016,0.1245496652109609
14.259083999999998,6.109387553645771,0.12440685180921392
14.261471999999998,6.1112517806231965,0.12425226214805017
14.263851999999996,6.117212756892074,0.1240739541361857
14.266247999999996,6.124896294653646,0.12388365838401662
14.268635999999995,6.140308696147168,0.12359009467868874
14.271031999999998,6.160237155812719,0.12324959519818574
14.273428,6.1834709688368035,0.12289249559222849
14.275816,6.2064252426071675,0.1225542673294631
14.278199999999998,6.224444149324919,0.12228920613760143
14.280596,6.24409306973675,0.12197195233182433
14.282984,6.269748292387831,0.12156697976078638
14.285363999999998,6.294192810225414,0.12118795524637879
14.287764,6.3169147665703,0.12082642328026928
14.290152,6.339404405489709,0.12043853652870923
14.292531999999998,6.360171482916422,0.12005542123411074
14.294928,6.378237611462416,0.1197425868961965
14.297316,6.3988176974340245,0.11941272291213362
14.299699999999998,6.423122445644747,0.11904410378854428
14.302096,6.450360460161664,0.11863467361815876
14.304479999999998,6.473314733932029,0.11830116727193027
14.306863999999996,6.494266906955976,0.1180012411174456
14.309259999999998,6.51149441774081,0.11774462271199033
14.311647999999998,6.527418675913528,0.11747880449234682
14.314027999999997,6.538407567033634,0.11728133556120796
14.316423999999998,6.543250386287628,0.11717814595467169
14.318811999999998,6.544228773675649,0.11712327961237405
14.321195999999995,6.539899706958721,0.11711323413399738
14.323591999999998,6.5350587835625955,0.11708956546108085
14.325979999999998,6.53035762979333,0.11705809380796316
14.328376,6.5295209078900385,0.11697903989295219
14.330772,6.5266820852403304,0.11692749114013765
14.33316,6.529058168896955,0.11679749443872295
14.335544,6.527430051060746,0.1167209514967116
14.33794,6.52272889729148,0.11668849251808465
14.340328,6.530971513560494,0.11648678752432992
14.342707999999998,6.5451278842701415,0.11617161527592218
14.345104,6.557841232740812,0.1158526862413443
14.347492,6.565898753412592,0.11558235667649545
14.349875999999998,6.570231611845258,0.11534846236921026
14.352272,6.575123548785365,0.11508284469449011
14.35466,6.5753596579265805,0.11486316303237339
14.357039999999998,6.576806471881295,0.11461860391807731
14.359436,6.577973746582289,0.11438954742522638
14.361824,6.580072186843061,0.11415002670423231
14.364207999999998,6.582450166357554,0.11389440580986328
14.366604,6.586970016245325,0.11360370918664989
14.368992,6.596005924305126,0.11327299777779712
14.371375999999998,6.602760192364789,0.1129838353383848
14.373772,6.613378892290427,0.11265066851170635
14.37616,6.617991289976814,0.11239836681889691
14.378539999999996,6.618599486170368,0.11219822472619037
14.380935999999998,6.615622789751668,0.11202867742701762
14.383323999999998,6.617209373333242,0.11177644537942508
14.38572,6.620658288034374,0.11150519766734665
14.388115999999997,6.614376238257141,0.11134930324517858
14.390503999999996,6.603810447733354,0.11125845168500259
14.392884,6.594175822769345,0.11115848641918777
14.39528,6.584820737059057,0.11104322287693846
14.397668,6.579330083214743,0.11088520416331794
14.400047999999998,6.579286653102239,0.11068299285109567
14.402448,6.586972086721682,0.11039739366928053
14.404832,6.595588685900902,0.11010434891306449
14.407215999999998,6.602482723587427,0.10982038700959953
14.409612,6.614731437207142,0.10945968886435684
14.412,6.629261790826996,0.10906126843503097
14.414383999999998,6.647656576312825,0.10862681155298819
14.41678,6.663257865119317,0.10821826081016282
14.419172,6.679930089112449,0.10779216955500638
14.421551999999998,6.691946485306688,0.10740868729298714
14.423955999999995,6.703171485568009,0.10702292744339441
14.426343999999997,6.720542557695441,0.10655945051755027
14.428724,6.737494320942293,0.10611934037455935
14.431119999999996,6.752816070495065,0.10572590839583076
14.433508,6.767346424114919,0.10533325534089101
14.435887999999998,6.783599339227469,0.1049310627708083
14.438287999999996,6.7966394487801045,0.10457320215767672
14.440672,6.810750493519378,0.1042017467037171
14.443056,6.827655034937986,0.10380853212532322
14.445452,6.8456305115432325,0.10340379826339455
14.44784,6.856668520349451,0.10307620741749217
14.450219999999998,6.865704428409251,0.10277525446125257
14.452616,6.874880106095914,0.1024690053963393
14.455004,6.8875009067679684,0.10214735763557899
14.457387999999998,6.890902599640857,0.1019353594971166
14.459784,6.892953818073388,0.10175259149414138
14.462176,6.890069669453303,0.10162113050490112
14.464555999999998,6.889187621579638,0.10146822723144623
14.466952,6.892309775198806,0.10127332159578505
14.46934,6.900087756616864,0.10104359515493047
14.471723999999998,6.912661335460677,0.10077154133965165
14.47412,6.920951173557933,0.10055682624425746
14.476508,6.932174277961385,0.10031600178254096
14.478891999999998,6.944608087178335,0.10005533138904807
14.481288,6.959835393074622,0.09977538705895068
14.483676,6.975062698970908,0.09949585040285748
14.486071999999997,6.994433975986888,0.09916761600725323
14.488467999999996,7.012315008935649,0.09887466858675362
14.490855999999996,7.027774632257412,0.09862400761736362
14.493239999999997,7.043746112258372,0.09838996800801392
14.495635999999998,7.065723894498584,0.0980962727420263
14.498023999999996,7.0846286408057395,0.09783686970385345
14.500404,7.103253847859176,0.09759281987203211
14.502803999999998,7.120016723793055,0.0973626408905393
14.505191999999996,7.146790103459019,0.09703537030423443
14.507568,7.172352778311484,0.09672727914781254
14.509971999999998,7.198846618723727,0.0964127034530298
14.512359999999996,7.227063020628666,0.0960955641106048
14.51474,7.250204285854133,0.09583148838393662
14.517143999999998,7.2692015799599075,0.09561359923548318
14.519531999999998,7.285405377386345,0.09541559161672288
14.521911999999997,7.30347150593234,0.09520520160276202
14.524316,7.312737835559748,0.09506958636264734
14.526704,7.323075100373796,0.09492259380042026
14.529083999999996,7.332341430001205,0.09478936766038024
14.531479999999998,7.341467990001754,0.09466277791708862
14.533867999999998,7.35152571556208,0.09453136497625715
14.536247999999995,7.362933915562768,0.09437495071540221
14.538643999999998,7.374901194070895,0.09419290425318788
14.541027999999995,7.383563119220489,0.09401601048558382
14.543411999999996,7.388640151757831,0.09385693652170628
14.545807999999996,7.395067658735531,0.09367283182163522
14.548195999999995,7.400703769780314,0.0934886022346252
14.550576,7.40489685858612,0.09329628040929162
14.552979999999998,7.401872940339177,0.09317641676828722
14.555363999999996,7.400479035786315,0.09301889331724561
14.557744,7.397362569740755,0.09286592728129427
14.560143999999998,7.3878677144036065,0.09274574742306281
14.562531999999996,7.3834479957459305,0.0925784555749809
