Time,Force,Position
14.84228,0.13568398316309818,0.0
14.844668,0.13006309137467706,0.0
14.847048,0.12765500514617154,0.0
14.849448,0.12003201261133353,0.0
14.851832,0.11240902007649557,0.0
14.854231999999998,0.10250438754152033,0.0
14.856628,0.09259975500654508,0.0
14.859016,0.08041348247143257,0.0
14.861399999999998,0.07195187217543333,0.0
14.863796,0.06335049225257389,0.0
14.866184,0.05582004751635298,0.0
14.868563999999996,0.048149833153271863,0.0
14.870964,0.03968822285727263,0.0
14.873352,0.032157778121051715,0.0
14.875735999999998,0.021833836705495834,0.0
14.878132,0.012301291222858066,0.0
14.88052,0.003979450553719042,0.0
14.882903999999998,0.00059297693719204,0.0
14.8853,0.0,0.0
14.887688,0.0,0.0
14.890067999999998,0.0,0.0
14.892468,0.0,0.0
14.894856,0.0,0.0
14.897235999999998,0.0,0.0
14.899632,0.0,0.0
14.902019999999998,0.0,0.0
14.904396,0.0,0.0
14.9068,0.0,0.0
14.909188,0.0,0.0
14.911571999999998,0.0,0.0
14.913963999999998,0.0,0.0
14.916351999999998,0.0,0.0
14.918732,0.0,0.0
14.921136,0.0,0.0
14.923524,0.0,0.0
14.925903999999996,0.0,0.0
14.928308,0.0,0.0
14.930696,0.0,0.0
14.933075999999998,0.0,0.0
14.93548,0.0,0.0
14.937868,0.0,0.0
14.940248,0.0,0.0
14.942652,0.0016639121238305704,0.0
14.94504,0.004398759434299671,0.0
14.94742,0.007273376371628983,0.0
14.949816,0.013081259615153464,0.0
14.952204,0.015816106925622565,0.0
14.954584,0.019482119795869987,0.0
14.956988,0.024870694158813836,0.0
14.959372,0.02932810296197937,0.0
14.961756,0.03471667732492322,0.0
14.964148,0.04145572612822602,0.0
14.966536,0.053130141984140844,0.0
14.968915999999998,0.06373362265341714,0.0
14.971312,0.07540803850933195,0.0
14.9737,0.08908455511166365,0.0
14.976079999999998,0.09982780540780015,0.0
14.978476,0.10749801977088125,0.0
14.980864,0.11302636376068534,0.0
14.983243999999996,0.11762354219071108,0.0
14.985639999999998,0.12007885024745976,0.0
14.988027999999998,0.12039228793093137,0.0
14.990424,0.11872837580710081,0.0
14.99282,0.1159935284966317,0.0
14.995208,0.11311891155930241,0.0
14.997588,0.10731102831577792,0.0
14.999984,0.10457618100530883,0.0
15.002372,0.1009101681350614,0.0
15.004751999999998,0.09552159377211755,0.0
15.007148,0.09106418496895202,0.0
15.009536,0.08567561060600817,0.0
15.011915999999998,0.07893656180270538,0.0
15.014316,0.06726214594679054,0.0
15.016704,0.05665866527751424,0.0
15.019083999999998,0.04498424942159941,0.0
15.02148,0.031307732819267735,0.0
15.023867999999998,0.02056448252313123,0.0
15.026264,0.012894268160050106,0.0
15.02866,0.007365924170246042,0.0
15.031048,0.0027687457402203013,0.0
15.033428,0.00031343768347161954,0.0
15.035828,0.0,0.0
15.038216,0.0,0.0
15.040596,0.0,0.0
15.042992,0.0,0.0
15.04538,0.0,0.0
15.047759999999998,0.0,0.0
15.05016,0.0,0.0
15.052548,0.0,0.0
15.054928,0.0,0.0
15.057324,0.0,0.0
15.059712,0.0,0.0
15.062096,0.0,0.0
15.064492,0.0,0.0
15.06688,3.3898429751198935e-05,0.0
15.069259999999998,0.00020756648636260808,0.0
15.07166,0.00020756648636260805,0.0
15.074048,0.00020756648636260805,0.0
15.076427999999998,0.00020756648636260808,0.0
15.078824,0.00020756648636260808,0.0
15.081207999999998,0.00020756648636260808,0.0
15.083604,0.00020756648636260808,0.0
15.086,0.0008005434235546479,0.0
15.088388,0.0008005434235546479,0.0
15.090768,0.0008005434235546479,0.0
15.093164,0.0008005434235546479,0.0
15.095552,0.0008005434235546479,0.0
15.097936,0.0008005434235546479,0.0
15.100332,0.0008005434235546479,0.0
15.10272,0.0008005434235546479,0.0
15.105099999999998,0.0010214333084092079,0.0
15.107496,0.0010214333084092077,0.0
15.109884,0.0012423231932637677,0.0
15.11228,0.002394378637896648,0.0
15.114675999999998,0.00523509714547476,0.0
15.11706,0.00506142908886335,0.0
15.119444,0.00621348453349623,0.0
15.12184,0.009507410351406172,0.0
15.124228,0.012382027288735482,0.0
15.126608,0.013114773852787732,0.0
15.129004,0.013114773852787734,0.0
15.131392,0.013114773852787734,0.0
15.133772,0.012521796915595695,0.0
15.136168,0.012521796915595695,0.0
15.138556,0.012521796915595695,0.0
15.140952,0.012521796915595695,0.0
15.143347999999998,0.012521796915595695,0.0
15.145735999999998,0.012521796915595695,0.0
15.148116,0.012521796915595695,0.0
15.150515999999998,0.012521796915595696,0.0
15.152903999999998,0.012300907030741135,0.0
15.155284,0.013545510273991075,0.0
15.157679999999996,0.013498288445747925,0.0
15.160064,0.013730605871225194,0.0
15.162448,0.010855988933895881,0.0
15.164844,0.010889887363647082,0.0
15.167232,0.009737831919014202,0.0
15.169612,0.00644390610110426,0.0
15.172008,0.0035692891637749483,0.0
15.174396,0.002836542599722698,0.0
15.176792,0.0043606850966930585,0.0
15.179187999999998,0.004953662033885098,0.0
15.181575999999998,0.006617574157715668,0.0
15.18396,0.007350320721767918,0.0
15.186355999999998,0.008083067285820167,0.0
15.188743999999998,0.00881581384987242,0.0
15.191128,0.010339956346842781,0.0
15.193523999999998,0.01033995634684278,0.0
15.195916,0.01033995634684278,0.0
15.198295999999996,0.01033995634684278,0.0
15.200696,0.01033995634684278,0.0
15.203084,0.009095353103592838,0.0
15.205467999999998,0.00892168504698143,0.0
15.207864,0.007537312176871279,0.0
15.210247999999998,0.007537312176871279,0.0
15.212631999999996,0.00750341374712008,0.0
15.215027999999998,0.007535416319002036,0.0
15.217415999999998,0.00975461523453496,0.0
15.219796,0.016535198292473192,0.0
15.222196,0.02745785661223609,0.0
15.224583999999998,0.03950820362963413,0.0
15.226964,0.06259087187964256,0.0
15.229359999999998,0.09386514285468328,0.0
15.231747999999998,0.13970940584634434,0.009541811287448888
15.234128,0.20184622234732214,0.018207622866333054
15.236527999999998,0.27678324754398065,0.026758555505678606
15.238911999999996,0.3620065240107054,0.0353248482581165
15.241292,0.46090252536402326,0.043815431460596466
15.243695999999998,0.5684547642933281,0.05253779986762915
15.246083999999998,0.687736276731675,0.06125513826281085
15.248464,0.8179556667461458,0.06999103142387265
15.250859999999998,0.9624655095235168,0.078538630321553
15.253247999999996,1.1220572009967058,0.08691490192737021
15.255628,1.29342538780718,0.09522622574581784
15.258031999999998,1.4717744725291877,0.10364989347280132
15.260419999999998,1.6572442247895895,0.11216180250900383
15.2628,1.849570324591025,0.12070978340087972
15.265195999999998,2.0470168870423073,0.12924764677486028
15.267583999999998,2.2473494939715417,0.1377621015683861
15.269968,2.4494046623934724,0.14628087298079676
15.272367999999998,2.6540210100692607,0.15480328658182724
15.274755999999998,2.851375024721926,0.1633672532275898
15.277136,3.041141841127373,0.17195825578955823
15.279544,3.217502148501456,0.17104683332898907
15.281932,3.3740775575525856,0.17115716408816756
15.284311999999998,3.514267865295783,0.17147882930727146
15.286708,3.6423095906493566,0.17182693215381328
15.289096,3.759133899173085,0.1722226164774355
15.291475999999998,3.8675815093745474,0.1723591939519929
15.293872,3.9628568238279915,0.17251567664454587
15.296259999999998,4.049475900705449,0.1725571870948536
15.29864,4.122735690379785,0.17275971420188255
15.301035999999998,4.1829157321047195,0.1730664017467884
15.303423999999998,4.2339730055448435,0.1733722417622173
15.305808,4.281494504058827,0.17348897775204655
15.308203999999998,4.326551162833309,0.17339341835548194
15.310591999999998,4.368955990413185,0.1731792996301486
15.312972,4.406567116425178,0.17292963607613562
15.315376,4.438453375309511,0.17266948033209167
15.317764,4.467408263745519,0.1723255568796023
15.320143999999996,4.495294112852756,0.1718557914325148
15.322539999999998,4.52341417524334,0.17125832175927194
15.324927999999998,4.549347041290273,0.17062061869232636
15.327308,4.572533632486113,0.16998366321494543
15.329703999999998,4.5987007118163925,0.16918765029828947
15.332091999999998,4.632317115624898,0.16820052185528298
15.334488,4.669006555366459,0.16711978113509274
15.336884,4.7049045991751015,0.16605602616756257
15.339272,4.744527305222858,0.16491862992026649
15.341651999999998,4.788106990935205,0.16373034925706803
15.344056,4.828194331833916,0.1626793124465568
15.346444,4.869352607919265,0.16160645962850384
15.348824,4.905435747325143,0.16068015852020276
15.351228,4.935652354118631,0.15991206728740176
15.353616,4.964705477926862,0.159147895121161
15.355996,4.9913844139363395,0.15843622831129148
15.358392,5.013175204721448,0.15780459405764005
15.36078,5.031520872521163,0.15723794387196646
15.363164,5.051356784388097,0.15661542693595723
15.36556,5.066257329202419,0.15612111777614268
15.367948,5.076874133270186,0.15575984707383686
15.370332,5.08334696621826,0.1555148997356112
15.372728,5.092845613271147,0.15524714066512454
15.375112,5.108443110361901,0.1548746324461145
15.377496,5.129208291930745,0.15442414104725788
15.379892,5.145969272006756,0.15407868054624352
15.38228,5.15965721614971,0.1538135094598569
15.384664,5.174927952158502,0.15353376772671903
15.38706,5.188336357047735,0.15329883521451454
15.389448,5.196577077458879,0.1531429328125284
15.391828,5.2081703730568,0.1528900480446817
15.394224,5.216830402348524,0.1527039186270199
15.396612,5.229634402759943,0.15241049441320736
15.398991999999998,5.2470016831716375,0.15197661270878512
15.4014,5.260085222836777,0.15166067792974927
15.403788,5.268605482501641,0.15148283368641619
15.406168,5.279499929965261,0.1512820533693802
15.408564,5.292116938921577,0.15105451421664334
15.410952,5.302172768624035,0.15091959540300623
15.413332,5.319166066125523,0.15062909215365697
15.415728,5.339232399560066,0.15026745717052403
15.418116,5.362371768927663,0.14983289802203295
15.4205,5.384068116056285,0.1494083339182645
15.422896,5.40525260650571,0.14898111289109423
15.42528,5.41698567173049,0.14873522204626455
15.427663999999998,5.4292778154627115,0.14844959088018003
15.43006,5.443991368821932,0.14809014403931117
15.432448,5.4561909647555344,0.14776272900165874
15.434827999999998,5.465037985502364,0.14752716713113606
15.437232,5.4804031651676395,0.14717476520120643
15.43962,5.494697409646277,0.14685319486079026
15.441999999999998,5.512856085990889,0.14645801033793043
15.444396,5.533808259014836,0.1460209917651136
15.446784,5.554992749464261,0.14562089754174273
15.449167999999998,5.580833067712575,0.14514095663542004
15.451564,5.60909479558789,0.14458534308892498
15.453952,5.634982335664449,0.14405134411432688
15.456336,5.663291285368006,0.14345460072306057
15.458732,5.690296982459445,0.14285109791144132
15.46112,5.711715686192216,0.1423504990025543
15.463504,5.727407626939457,0.14195309486156812
15.4659,5.743379106940418,0.14154253708560605
15.468288,5.758419421381601,0.14114893933914613
15.470672,5.768524368770171,0.14085102016397794
15.473068,5.787289345450468,0.14039762616031523
15.475452,5.804284538809823,0.14001460441063077
15.477835999999998,5.8208604232885985,0.13966287284329262
15.480232,5.83901909963321,0.13929982607317437
15.48262,5.856526149671765,0.1389291628641935
15.485016,5.871379472657843,0.13860023961830428
15.487412,5.884370464524366,0.13830163745408083
15.4898,5.892705628591997,0.13807813403886549
15.49218,5.895873108181537,0.13791636774899774
15.494583999999998,5.896945939226046,0.13775256259442853
15.496971999999998,5.893642481725383,0.13764286571197143
15.499352,5.8924808945979965,0.13748651042480015
15.501751999999998,5.892902099336447,0.13731993089707542
15.504136,5.886106297022146,0.13729848486290658
15.50652,5.880893286573683,0.13726660151110873
15.508915999999996,5.876331902431278,0.13723864200565666
15.511303999999996,5.873632849408429,0.13718212473426064
15.513684,5.8634372500791105,0.1372923126831098
15.516083999999998,5.852170715563154,0.1374266204195906
15.518471999999996,5.841975116233836,0.13753817715244365
15.520852,5.829265559478902,0.13767168266731497
15.523248,5.818186016418049,0.13774532730943276
15.525636,5.807246242984057,0.1378088089857836
15.528016,5.7936527424975885,0.13790698108581556
15.530412,5.785274148317454,0.13789540688155336
15.5328,5.775824618950678,0.1379066178017018
15.53518,5.767306255143682,0.13790354701222038
15.53758,5.760510452829383,0.1378813299201917
15.539968,5.755809299060118,0.1378619836970627
15.542352,5.751480232343189,0.13786505193615672
15.544748,5.747011395999401,0.13787776299338986
15.547136,5.738119049282198,0.13799449548464143
15.54952,5.729366472191856,0.13810102191420426
15.551919999999996,5.727970671781124,0.13805181649269063
15.554308,5.72778557618389,0.13797023130733604
15.556692,5.726669315026877,0.13790273685619622
15.559087999999996,5.727694924243141,0.13778853728165183
15.561476,5.738079410885433,0.1374814346004037
15.563856,5.75046599827414,0.13713687030017152
15.566259999999998,5.765506312715323,0.13676002095580692
15.568647999999998,5.780127318275925,0.13641346422328288
15.571028,5.7956794893963055,0.13605511184862668
15.573427999999998,5.806296293464074,0.13578253469245777
15.575815999999998,5.824130104584591,0.13537088047291124
15.578196,5.838331801264613,0.13505830363518082
15.580595999999998,5.853324893877553,0.13474220570627027
15.582983999999998,5.866176116117216,0.1344698548444638
15.585364,5.880098273543516,0.13417585710616653
15.587763999999998,5.891226934290483,0.13392165040423634
15.590151999999998,5.9026351342911685,0.1336494011546076
15.592532,5.919118470971328,0.13328344601748057
15.594931999999998,5.941236022838399,0.13278886146970414
15.597319999999998,5.9625621787725525,0.13230145363845702
15.5997,5.98067552914679,0.13188632234362108
15.602095999999998,5.9949244476550545,0.13153389354904776
15.604483999999998,6.012106632469514,0.13113441174655163
15.606868,6.029940443590032,0.13074317441973957
15.609263999999998,6.039765851724882,0.1304911195987882
15.611651999999998,6.0487998639268135,0.13024436673447265
15.614036,6.053969444262773,0.13005749805580144
15.616431999999998,6.058347628665814,0.1298752127777471
15.618819999999998,6.066730014561687,0.12962880221665857
15.6212,6.084191738629866,0.12922920328753124
15.623599999999998,6.09229458527202,0.12900199375662466
15.625987999999998,6.099094179302058,0.1287642095717698
15.628372,6.101517484786925,0.12857016530487544
15.630767999999998,6.107153595831707,0.12831264516576504
15.633155999999998,6.115071346876627,0.12800778581878908
15.63554,6.1224772412423505,0.12768653344819436
15.637935999999998,6.135237811541264,0.12726661754027258
15.640323999999998,6.149069317026817,0.12683459288192075
15.642708,6.158617081765817,0.1264857356134011
15.645103999999998,6.168025076877955,0.12614580149735133
15.647491999999998,6.177433071990094,0.12580627105568132
15.649872,6.189634563781566,0.12543189949091918
15.652271999999998,6.19731999740101,0.12510671248918148
15.654659999999998,6.20062914247528,0.12482212599475986
15.65704,6.2111552946023,0.12441531405409305
15.659435999999998,6.222612612289098,0.12399882179882771
15.661823999999998,6.237702044416394,0.1234985251947183
15.664204,6.2518603109839095,0.12300923637715143
15.666603999999998,6.255868304192481,0.12268386127986237
15.668991999999998,6.251867894415387,0.12248274773041151
15.671372,6.253222160571483,0.12218305837150241
15.673768,6.259372024153333,0.12182005368294894
15.676156,6.273110981840271,0.1213605467692202
15.67854,6.287920874713846,0.1208860753200097
15.680935999999996,6.296584695721309,0.12051089788204762
15.683324,6.312837610833859,0.12004379370973071
15.685708,6.319871418147244,0.11972387216113677
15.688103999999996,6.315823786541906,0.11956880110342523
15.690492,6.3125675508694865,0.11941095986249987
15.692887999999998,6.308519919264148,0.11925549530832431
15.695288,6.306614158032087,0.11906297382700162
15.697676,6.302846065680469,0.11889158577276615
15.700055999999998,6.303594031500882,0.11867536189541497
15.702456,6.308858055493327,0.11841440192711014
15.704844,6.3137027706051905,0.11818080377626144
15.707223999999998,6.319199112023113,0.11795437802385941
15.709624,6.325207310120232,0.11774362466493296
15.712012,6.332146673777131,0.11752273000759048
15.714396,6.34402140448664,0.11723270060328819
15.716796,6.359760567062124,0.11689280283611947
15.71918,6.3730783200106105,0.11660570803122759
15.721559999999998,6.381972562585682,0.11640021050040816
15.723952,6.387514229973978,0.11625841050553995
15.72634,6.389563552548639,0.11618583013662694
15.728716,6.394266602175772,0.11609074244850241
15.73112,6.396688011802771,0.11604026634392146
15.733508,6.404277105907858,0.11595401018352025
15.735884,6.427463697103698,0.11567336517221058
15.738279999999998,6.450370749045819,0.1154076246296675
15.740664,6.474860592853775,0.11513856650214428
15.743059999999998,6.494787156661456,0.11495528814908978
15.745464,6.516436281961835,0.11476056662127859
15.747848,6.538085407262214,0.11456884156980987
15.750227999999998,6.559874302189453,0.11437268977254011
15.752632,6.580732031556913,0.11418935917107884
15.75502,6.598004868312121,0.11403588266948148
15.7574,6.615137935440468,0.11389242695794408
15.759792,6.631200067382177,0.11376544282923207
15.76218,6.649543839324023,0.11359925209933158
15.764559999999998,6.669889712012286,0.11341037244274038
15.766964,6.6954504910068815,0.11314976428680526
15.769348,6.725434780374892,0.11281876270311905
15.771731999999998,6.753696508250204,0.11249763003724747
15.774124,6.785450580939154,0.11211445314051577
15.776512,6.81948629362824,0.11169403499562017
15.778892,6.850868279264852,0.11129577851598962
15.781296,6.88029538598329,0.11088060031511886
15.78368,6.897198031544029,0.11060286558894633
15.786059999999996,6.916801625985486,0.11026689431506742
15.788464,6.936544990053804,0.10992541061589385
15.790852,6.962062338935894,0.10948653653713589
15.793231999999998,6.987859227071704,0.10903590030408375
15.795636,7.0107228489013185,0.10861822878779748
15.798024,7.030513434797882,0.1082406221296297
15.800404,7.043785861775993,0.10791858047012981
15.8028,7.058920619873662,0.10757938200044219
15.805188,7.071122111665137,0.10727261879479821
15.807567999999998,7.0896094449495815,0.10688559979070504
15.809964,7.106886073420528,0.10652373786110994
15.812352,7.1205778092792205,0.10618872253040648
15.814731999999998,7.126400911779106,0.10593737613768328
15.817136,7.127428416853241,0.10573233980872307
15.81952,7.129666626740873,0.10550555691468445
15.821899999999998,7.128831800695449,0.10531606828835915
15.824304,7.127205578717108,0.10512807886305749
15.826692,7.122925629686293,0.10495517531882856
15.829071999999998,7.1214391773348105,0.10476004922484965
15.831468,7.123165530543246,0.10452048022238675
15.833856,7.1216790781917645,0.10432458303174022
15.836235999999998,7.117399129160948,0.10415082965127588
15.838632,7.1079042738238005,0.10404150177953413
15.841015999999998,7.096686856993957,0.10393958793137045
15.843412,7.087890849791111,0.10379540650870615
15.845808,7.080724856282344,0.10360940426708169
15.848196,7.080356560945744,0.10335827796426104
15.850575999999998,7.0791968696762275,0.10310734011191294
15.85298,7.077385552100651,0.1028490179462369
15.855364,7.0655637307929915,0.10269745524772413
15.857744,7.052298887246356,0.1025392123021644
15.860148,7.037683569259363,0.10240830884055108
15.862536,7.0280036183249806,0.10222712565163501
15.864916,7.0171129625771,0.10206634283499347
15.867319999999998,7.002218105336386,0.1019484510207938
15.869707999999996,6.98839418328231,0.1018158267963821
15.872088,6.97042629010854,0.10173328057754312
15.874484,6.957114224733662,0.10161347888161655
15.876872,6.93965818823909,0.10154357519394729
15.879252,6.923784943610354,0.10147249457118226
15.881655999999998,6.908982634168256,0.10138680147994937
15.884043999999998,6.895111490285936,0.10129368018968095
15.88642,6.881891972709675,0.10120739685495984
15.888823999999998,6.87025524699925,0.10112013745068717
15.891208,6.856197111661827,0.10107512119649928
15.893588,6.844373394496298,0.10103559156656682
15.895991999999998,6.8284057062110755,0.10104506529938496
15.898379999999998,6.814300349045409,0.10103976919180434
15.90076,6.799915452626023,0.10104874897275332
15.903155999999996,6.792048715125085,0.10100802380798982
15.905544,6.783622899116706,0.1009952435789977
15.907924,6.779201284601161,0.1009396514187795
15.91032,6.775710835645395,0.1008769737691387
