Time,Force,Position
16.62666,0.01826268365648254,0.0
16.62904,0.016978302640838078,0.0
16.631436,0.01676485681183214,0.0
16.633824,0.01669118060968642,0.0
16.636219999999998,0.016337965153820275,0.0
16.638616,0.01440195783211791,0.0
16.641,0.01440195783211791,0.0
16.64338,0.014401957832117911,0.0
16.645788,0.014401957832117911,0.0
16.648176,0.014401957832117913,0.0
16.650555999999998,0.014401957832117913,0.0
16.652952,0.014401957832117913,0.0
16.655344,0.012326180883555337,0.0
16.657723999999998,0.014122418578397493,0.0
16.660124,0.011189152272202319,0.0
16.662508,0.009606360406366097,0.0
16.664887999999998,0.005741928540392606,0.0
16.667284,0.012613302914706992,0.0
16.669672,0.02120723878171781,0.0
16.672052,0.026216282036475552,0.0
16.674447999999998,0.03322742603765015,0.0
16.676835999999998,0.039586943732766854,0.0
16.679216,0.04673785736080166,0.0
16.681611999999998,0.051886670242419615,0.0
16.684,0.05996874943023274,0.0
16.68638,0.07033246861818314,0.0
16.688779999999998,0.08334991485860829,0.0
16.691164,0.09529642591239493,0.0
16.693559999999998,0.10831387215282005,0.0
16.69596,0.12226248395302353,0.0
16.698344,0.1355594694471691,0.0
16.700724,0.14485225344848096,0.0
16.70312,0.15307410226315432,0.0
16.705508,0.1572180733828482,0.0
16.707888,0.1632243756220988,0.0
16.710288,0.16788020342099041,0.0
16.712676,0.1756090671529374,0.0
16.715056,0.1756090671529374,0.0
16.717451999999998,0.17109300898090604,0.0
16.719839999999998,0.17402627528710118,0.0
16.722236,0.17095323935404577,0.0
16.724632,0.1693232256599664,0.0
16.72702,0.1650394849134123,0.0
16.7294,0.1626180752864148,0.0
16.731796,0.156472003420304,0.0
16.734184,0.15069801860653076,0.0
16.736568,0.14334124192692127,0.0
16.738964,0.13398236450089487,0.0
16.741352,0.12662558782128538,0.0
16.743731999999998,0.11661508408920113,0.0
16.746128,0.10525410591675792,0.0
16.748516,0.09975966035670505,0.0
16.750896,0.09333404923687388,0.0
16.7533,0.09026101330381849,0.0
16.755688,0.08718797737076309,0.0
16.758072,0.08211284069129085,0.0
16.760468,0.07382489845190303,0.0
16.762856,0.06695352407758866,0.0
16.76524,0.06304187038337201,0.0
16.767636,0.0550995608224191,0.0
16.77002,0.05116145275429988,0.0
16.772403999999998,0.046431948753262564,0.0
16.7748,0.043591230245684454,0.0
16.777188,0.041030050991826744,0.0
16.779571999999998,0.03909404367012438,0.0
16.781976,0.03450430929594728,0.0
16.784364,0.028843639735131626,0.0
16.786744,0.02625600610737136,0.0
16.78914,0.020595336546555716,0.0
16.791528,0.0166572284784365,0.0
16.793908,0.014721221156734134,0.0
16.796308,0.01092288271547513,0.0
16.798696,0.009153099394535548,0.0
16.801076,0.006285926513054861,0.0
16.803476,0.0024875880717958564,0.0
16.80586,0.003139214377853755,0.0
16.808244,0.005141315124270606,0.0
16.810648,0.009870819125307928,0.0
16.813036,0.012431998379165624,0.0
16.815416,0.017021732753342737,0.0
16.817812,0.019749136007963214,0.0
16.8202,0.022336769635723477,0.0
16.82258,0.026108653703079906,0.0
16.824976,0.025942429702317124,0.0
16.82736,0.027319358516578646,0.0
16.829743999999998,0.027625352144201646,0.0
16.83214,0.027625352144201646,0.0
16.834528,0.027625352144201646,0.0
16.836908,0.027625352144201646,0.0
16.839304,0.027625352144201646,0.0
16.841692,0.027625352144201646,0.0
16.844092,0.027625352144201646,0.0
16.846488,0.027598897770299075,0.0
16.848876,0.027598897770299075,0.0
16.851256,0.027598897770299075,0.0
16.853656,0.02529080339625923,0.0
16.856044,0.02284293939535918,0.0
16.858424,0.018113435394321854,0.0
16.86082,0.015386032139701378,0.0
16.863208,0.010796297765524264,0.0
16.865592,0.00879419701910741,0.0
16.867988,0.008933966645967621,0.0
16.870376,0.006792096272690559,0.0
16.872756,0.012592535460366415,0.0
16.875152,0.016084880274002428,0.0
16.87754,0.020787929901137182,0.0
16.87992,0.026588369088813034,0.0
16.88232,0.03425113939604554,0.0
16.884704,0.04098274414349971,0.0
16.887088,0.047993888144674306,0.0
16.889484,0.057007132892265756,0.0
16.891872,0.06429781614716078,0.0
16.894251999999998,0.06958639865563894,0.0
16.896648,0.07380404597747858,0.0
16.89904,0.07480888773940261,0.0
16.901436,0.07567395987446646,0.0
16.903831999999998,0.07567395987446646,0.0
16.906219999999998,0.07567395987446646,0.0
16.9086,0.07567395987446646,0.0
16.910996,0.07567395987446646,0.0
16.913384,0.07494865736626283,0.0
16.915768,0.07222125411164235,0.0
16.918164,0.0705647860436604,0.0
16.920552,0.06476434685598456,0.0
16.922932,0.05989507322808703,0.0
16.925328,0.05488602997332928,0.0
16.927716,0.04908559078565342,0.0
16.9301,0.04142282047842093,0.0
16.932496,0.03469121573096675,0.0
16.934884,0.027680071729792147,0.0
16.937264,0.018666826982200697,0.0
16.939664,0.011376143727305681,0.0
16.942052,0.006087561218827514,0.0
16.944432,0.0018699138969878776,0.0
16.946828,0.0008650721350638337,0.0
16.949212,0.0,0.0
16.951591999999998,0.0,0.0
16.954007999999998,0.0,0.0
16.956392,0.0,0.0
16.958776,0.0,0.0
16.961171999999998,0.0001662240007627821,0.0
16.963556,0.00016622400076278206,0.0
16.965936,0.00016622400076278206,0.0
16.968332,0.0001662240007627821,0.0
16.97072,0.0001662240007627821,0.0
16.973116,0.0001662240007627821,0.0
16.975512,0.0001662240007627821,0.0
16.977899999999998,0.0001662240007627821,0.0
16.98028,0.0007045350538630437,0.0
16.982675999999998,0.0024535509204620456,0.0
16.98506,0.003923027533340627,0.0
16.987444,0.0044613385864408885,0.0
16.98984,0.007001750385958,0.0
16.992224,0.009681931812335324,0.0
16.994604,0.011430947678934326,0.0
16.997008,0.012248797985755008,0.0
16.999396,0.017070849785409393,0.0
17.001776,0.02496593751811916,0.0
17.004172,0.03407173006432766,0.0
17.00656,0.041454961117839736,0.0
17.008955999999998,0.04895150742430945,0.0
17.011352,0.056754047358402164,0.0
17.01374,0.06655868803891173,0.0
17.016123999999998,0.08143846539889349,0.0
17.01852,0.09538707719909696,0.0
17.020903999999998,0.11012708493221857,0.0
17.023288,0.12286499191892329,0.0
17.025684,0.1315986974127943,0.0
17.028071999999998,0.13681360371912676,0.0
17.030452,0.13993196562255608,0.0
17.032847999999998,0.14588915017569423,0.0
17.035235999999998,0.15687235372219224,0.0
17.037616,0.16813130480667218,0.0
17.04002,0.19493673943792464,0.0
17.042408,0.2426433335491423,0.009538073171080888
17.044788,0.3067822507965369,0.018284756747168958
17.047188,0.3756204259553278,0.02714147527220509
17.049576,0.4535341475706861,0.03586981964468895
17.051956,0.5444803953072025,0.04447326489411897
17.054356,0.6532547665906288,0.052884953897966214
17.056739999999998,0.7746895769428753,0.06123216109680162
17.059124,0.9089718178190458,0.06942398120601379
17.061519999999998,1.0491640214201114,0.07771897493426332
17.063907999999998,1.1940082611043301,0.08612830940261376
17.066292,1.356168767656261,0.09439616435925756
17.068687999999998,1.532759496597952,0.10252819348250128
17.071072,1.724479296063704,0.11055199046255886
17.073468,1.9329109579193535,0.11851952814696043
17.075864,2.1588930999260616,0.12639266989260264
17.078248,2.402892252792652,0.13408603005406422
17.080628,2.6563428308838857,0.14164528073839014
17.083032,2.916965090057495,0.14903592360856197
17.08542,3.181827659865154,0.1563097851393217
17.087799999999998,3.4284900190735654,0.1636132316162987
17.090204,3.6506663261897585,0.16145263589859235
17.092588,3.85906403722225,0.160059528612024
17.094967999999998,4.0646248214629015,0.1584376291380962
17.097368,4.254172591447956,0.15701940706280032
17.099752,4.424961072326323,0.1558004427196367
17.102132,4.580854695963976,0.15473601789762642
17.104528,4.729674873891477,0.15361689398992395
17.106916,4.867090643534031,0.15264043026382343
17.109296,4.998828767877167,0.15155160571086448
17.111696,5.126426712816348,0.15025494624243915
17.114084,5.238430952380513,0.14909391006558997
17.116464,5.333071703248723,0.14811826176790022
17.118864,5.415748967324543,0.14726715558099168
17.121247999999998,5.4859508879287775,0.14650401086024972
17.123628,5.539720485396835,0.14586661355521421
17.126044,5.574776119728577,0.14542156925090585
17.128428,5.598752210999467,0.1450947792448115
17.130812,5.610530602194622,0.14495245223179287
17.133216,5.618352013725186,0.14484787299562793
17.135604,5.629386230815667,0.14466651310903203
17.137984,5.643213944585481,0.14443246874501128
17.14038,5.6483816290635716,0.14436253909682212
17.142768,5.644609744996214,0.1444807129719264
17.145148,5.647495789474166,0.14447383702934002
17.147544,5.6566204536168465,0.14436972240941276
17.149928,5.662672081826471,0.1443355192145222
17.152307999999998,5.657921810371091,0.14452426161232576
17.154708,5.652240373355936,0.14472871607625015
17.157092,5.64711801484822,0.14489164324063936
17.159475999999998,5.632963539996442,0.14519579392965082
17.161872,5.618576747719186,0.14546568266900337
17.164255999999998,5.604609264322512,0.14571002431761398
17.16664,5.587895506074746,0.14595222067772343
17.169036,5.572160135215001,0.1461253051674384
17.171419999999998,5.557355929915034,0.14628416658242058
17.1738,5.539478688682013,0.14651789709024293
17.176216,5.5165263107695175,0.14687133720458082
17.178604,5.495016955095999,0.1472221692194425
17.180984,5.470247572034322,0.14770497112666803
17.183388,5.445291197517541,0.14824809607598924
17.185772,5.424199254866735,0.14871173831096124
17.188152,5.412978046321151,0.1489703586272718
17.190552,5.408414766320877,0.14909909946459932
17.192936,5.404131025574324,0.1492056413966672
17.19532,5.40068590258893,0.14925168659261384
17.197724,5.397660088484117,0.14926860007455972
17.200108,5.3991975543795805,0.1491586680403294
17.202492,5.398360832476288,0.14906923919541096
17.204888,5.398083189080437,0.14894109884929382
17.207272,5.406465574976309,0.1486464906161891
17.209656,5.4156393568051024,0.14834777470824617
17.212052,5.428537800873007,0.14798498243314917
17.214436,5.4466039294190045,0.1475574527487931
17.21682,5.467184015390613,0.14710883544027614
17.219216,5.492839238041694,0.146559044905179
17.221604,5.525292158864943,0.14587621167377007
17.223983999999998,5.565101856367804,0.14502233473660045
17.22638,5.603328762004827,0.1441774475854804
17.228768,5.644536155776289,0.14322657091507437
17.231151999999998,5.684999375443076,0.14223210759245067
17.233548,5.720806767310972,0.14131794628857747
17.235936,5.751027165820197,0.14050003148831217
17.238332,5.775800340597613,0.1397699008927486
17.240728,5.7984316450017515,0.139098047490532
17.243116,5.816639439032476,0.13853699382711637
17.2455,5.836569794555896,0.13795438239576002
17.247896,5.854590597131517,0.13744969903990306
17.25028,5.873914652319254,0.1369488217840386
17.252664,5.890677528253132,0.13653237849910052
17.25506,5.898500835641564,0.13629164889547773
17.257448,5.9011092367236655,0.1361629883111916
17.259828,5.901715537059349,0.13607438913904227
17.262224,5.899388571088838,0.13604028366328044
17.264612,5.891614381386517,0.13608507622999289
17.266992,5.879044594258445,0.13621001569874486
17.269392,5.8658231808243135,0.13632801717402573
17.27178,5.847386861083851,0.13655236326719467
17.27416,5.83430521727658,0.1366581365443387
17.276564,5.8200128686558115,0.13679332583202342
17.278952,5.8088861037667145,0.13690731228705838
17.281332,5.802275397049649,0.13696225358467523
17.283736,5.80297424518395,0.13691784738027335
17.286124,5.808328921117144,0.13680645289679527
17.288504,5.8128922011174184,0.1366999710123646
17.2909,5.820528517050748,0.13653559578120741
17.293288,5.828816459290136,0.1363763116510852
17.295672,5.842179538208996,0.1361239402766152
17.298068,5.858243566008574,0.13579367127323594
17.300456,5.867789434889704,0.13555275224237565
17.302836,5.8791976348903905,0.13528077346280218
17.305232,5.892747705264354,0.13495837489513493
17.30762,5.907368710824955,0.13461407666993805
17.310004,5.922688564519858,0.13422667393997423
17.3124,5.940010518961179,0.13380146319059671
17.314788,5.957052934148778,0.13339299722061287
17.317172,5.9712546308288,0.1330763196629805
17.319568,5.9891809897479344,0.13270323858941457
17.321956,5.997888240867903,0.13251001133971899
17.324332,6.005804096054954,0.13232261268291506
17.326728,6.0072017923235554,0.13223191752433835
17.329116,6.0075285534055185,0.1321644902936302
17.331512,6.002547860382532,0.13216054857189596
17.333908,5.994122044374155,0.1321919005576595
17.336296,5.984904832432858,0.13222754483011726
17.338676,5.974756454931782,0.13227558682343385
17.341084,5.963816681497789,0.1323275091116387
17.343467999999998,5.948360849891764,0.13243578062005001
17.345848,5.930763147912462,0.13258557843926194
17.348247999999998,5.924107115225023,0.13254850054203637
17.350632,5.924248780709752,0.1324038851831884
17.353012,5.929977439553152,0.13218357658892643
17.355415999999998,5.931841666530579,0.13202224765537945
17.357803999999998,5.931564023134729,0.13190394629847843
17.360184,5.930075674925378,0.13181561005772027
17.362579999999998,5.931660362649084,0.13167213994131485
17.364968,5.935014833693728,0.13146360811000746
17.367352,5.937205821753118,0.13123801746986716
17.369747999999998,5.946474047238397,0.13088777169684926
17.372139999999998,5.9557422727236755,0.1305383858001554
17.37452,5.968595390821207,0.13014395855221975
17.376915999999998,5.978655012239404,0.12978704792129056
17.379303999999998,5.990437195150295,0.12941407800967633
17.381684,6.000729133993969,0.12908666278292324
17.384083999999998,6.012324325449759,0.12876870674606958
17.386471999999998,6.023500208024967,0.1284773803999025
17.388852,6.035747025786814,0.12816591901720029
17.391248,6.051858275414635,0.12779557710597692
17.393636,6.065827654669181,0.12746657372700093
17.396016,6.072580026870975,0.1272727765010689
17.398412,6.072674470527461,0.12717644188315327
17.4008,6.066250755265499,0.12716684158815594
17.403184,6.065693572615928,0.12706583232559937
17.40558,6.064344994033439,0.12696816849628662
17.407968,6.0662092210108645,0.12680780943080297
17.410352,6.067002512801651,0.12666921558650282
17.412748,6.069378596458275,0.12652427892210968
17.415136,6.072266536794097,0.12639351754331907
17.417516,6.075154477129916,0.12626404944625413
17.419916,6.077762878212018,0.12615153005891336
17.422304,6.0823733800405355,0.1260079887849456
17.424684,6.08991714817525,0.12582106051148512
17.427084,6.096529750750184,0.12564638003590103
17.429468,6.107705633325393,0.12537579524950446
17.431864,6.11557616254207,0.1251249734164322
17.434264,6.122934835079549,0.12486019936340795
17.436652,6.127080702057113,0.12465516330707119
17.439032,6.128013763474759,0.12451050869546203
17.441428,6.134301500825599,0.1242669392539956
17.443815999999998,6.143662274109495,0.1239715106512383
17.4462,6.154885378512947,0.12365205765650666
17.448596,6.171695476275069,0.12326367553859968
17.450984,6.184641142171217,0.12293221008533357
17.453367999999998,6.201963096612538,0.12256173243389373
17.455764,6.2199366773599145,0.12220219010972379
17.458152,6.238981193293932,0.12182694132768054
17.460532,6.258165478854808,0.12144809900221541
17.462932,6.276558368482766,0.12107381018596446
17.46532,6.29201799180453,0.12074149599056218
17.4677,6.308688319939792,0.12038373409930779
17.470095999999998,6.3214942162090795,0.12007676389185849
17.472488,6.33350871654545,0.11977365780271901
17.474868,6.347665087255097,0.11943590656971793
17.477268,6.3566065516584125,0.1191822895996749
17.479651999999998,6.372485483860757,0.11883414499744425
17.482032,6.390086977555797,0.11847423783742944
17.484436,6.4129033775571695,0.11803294279109904
17.486824,6.43814118718554,0.11754029733371309
17.489204,6.460305960880856,0.11709930799099202
17.491604,6.4803288642028924,0.11669408249611793
17.493987999999998,6.501422702711569,0.1162729586996409
17.496368,6.520793979727549,0.11586839170450453
17.498768,6.541096422303307,0.11545379124565525
17.501151999999998,6.555672101893536,0.1151054554319692
17.503543999999998,6.564660788125092,0.11481618107358928
17.505952,6.567782941744261,0.11460037183354772
17.508336,6.567040663497455,0.11443150830291268
17.510716,6.568020946743345,0.114251650365329
17.513116,6.571794726668571,0.11404341392565044
17.5155,6.574357801780297,0.113860625181824
17.517879999999998,6.5849292798776915,0.11357376195299022
17.520288,6.59843402428128,0.11325415768174059
17.522672,6.607655027938316,0.11300215566809362
17.525052,6.623813499394381,0.11266436064845171
17.527448,6.634757064544113,0.11240482534542369
17.529836,6.645840399320705,0.11213937427667535
17.532216,6.653850698164241,0.11191744916573003
17.53462,6.662652392940696,0.1116961079090964
17.537008,6.670243382903651,0.11149804584672081
17.539388,6.681326717680244,0.11123812635130505
17.541784,6.689337016523781,0.1110186243891531
17.544172,6.695345214620901,0.11082402442890725
17.546552,6.700422247158243,0.11063786901759755
17.548948,6.712716286748334,0.11035600087193051
17.551336,6.729805923764176,0.1100242065826196
17.55372,6.749828827086215,0.10965595093258088
17.556116,6.770643126341171,0.10928439786092951
17.558508,6.788663928916791,0.10894021674973385
17.560888,6.804962169999715,0.10860801711820112
17.563284,6.825544151829195,0.10821646661862935
17.565672,6.83639516918031,0.10793300697383121
17.568056,6.8423108194788105,0.10770641612539993
17.570452,6.849576944217673,0.10744866120240655
17.57284,6.8499056011575075,0.10727107971943782
17.575224,6.848511696604642,0.10710183849023489
17.57762,6.844975921678501,0.10696377478280807
17.580012,6.8413003771255,0.10683299342915241
17.582392,6.833620631079667,0.10674971197841658
17.584796,6.827803216153388,0.1066499539209564
17.587184,6.817702060480556,0.10661189498440063
17.589564,6.811605106300557,0.1065264215477988
17.59196,6.806579087307197,0.10642533398528227
17.594348,6.804486334620032,0.10629268125909325
17.596728,6.797318445253395,0.10622199740296455
17.599124,6.786286124020784,0.10619008645744818
17.601512,6.777255903534591,0.10613484809038548
17.603892,6.770367553421675,0.10604932112585719
17.606296,6.764550138495398,0.1059485423931565
17.60868,6.757801558009343,0.10585537591748469
17.61106,6.743975740097398,0.10584514324278085
17.613464,6.735736915544122,0.10578810723305279
17.615852,6.731222753229959,0.10569981633568766
17.618232,6.729502087595133,0.10558834855125986
17.620628,6.731925393079999,0.10542427938733478
17.623016,6.741286166363895,0.10518582872440677
17.625396,6.75185764446129,0.10492530958030057
17.6278,6.759915165133069,0.10467242759164147
17.630188,6.772116656924541,0.10436784159272348
17.632568,6.782223500170981,0.10405074711774158
17.634964,6.796614084163975,0.10367541694971451
17.637352,6.805138135544579,0.10335912705657901
17.639736,6.813662186925181,0.10304345636409436
17.642132,6.818461576066672,0.10275840769581569
17.644516,6.825402835581439,0.10244463534492904
17.646895999999998,6.835277361402402,0.10210130280577859
17.649292,6.845151887223364,0.10175981396758195
17.65168,6.853024312297909,0.10144058357567863
17.654076,6.861036506999315,0.10111501619059186
17.656472,6.868769162447,0.10080286310546895
17.65886,6.877712522708184,0.1004667967818143
17.66124,6.882000055170478,0.10016730404372032
17.663643999999998,6.881771529460739,0.09989723282456228
17.666031999999998,6.879960211885163,0.09962846906926179
17.668412,6.87707795912295,0.09937446433805491
17.670808,6.8681894041214875,0.09918465869773327
17.673196,6.859440618746882,0.09898756383286109
17.67558,6.8576293011713085,0.09872097964283302
17.677976,6.854095422103037,0.09846196524689343
17.680364,6.854006666020158,0.09819011184074132
17.682744,6.847771838071168,0.09798571532524346
17.685144,6.850476578667624,0.0976939950545142
17.687532,6.8522501537043015,0.09740882098509862
17.689912,6.858027930233813,0.09708405676858509
17.692315999999998,6.86073267083027,0.09679270384800329
17.694703999999998,6.86171484993403,0.09650785002065038
17.697088,6.859903532358455,0.09624222635542487
17.699483999999998,6.862375955529435,0.09592468131100156
17.701871999999998,6.863777443513777,0.09562029666281258
17.704252,6.865598240378698,0.09529471628664149
17.706647999999998,6.868210433176536,0.09496855754765955
17.709035999999998,6.873895661907431,0.09460849626104237
17.711416,6.885447423250716,0.0941976368731158
17.71382,6.894577774967004,0.09382643857060688
