Time,Force,Position
18.052764,0.0,0.0
18.05521200000001,0.0,0.0
18.05766,0.0,0.0
18.060096000000016,0.0,0.0
18.062540000000013,0.0,0.0
18.06498400000001,0.0,0.0
18.067428000000007,0.0,0.0
18.06986800000001,0.0,0.0
18.072304000000003,0.0,0.0
18.074752000000014,0.0,0.0
18.077192,0.0,0.0
18.079636000000026,0.0,0.0
18.08208400000001,0.0,0.0
18.084532,0.0004965547198791654,0.0
18.08698000000001,0.003926375745953502,0.0
18.08942000000002,0.007356196772027838,0.0
18.091871999999995,0.008923686678545534,0.0
18.09431600000002,0.00969978065214512,0.0
18.096764000000007,0.011407040185523026,0.0
18.099208000000004,0.012183134159122613,0.0
18.10164800000001,0.012183134159122613,0.0
18.104084,0.012183134159122613,0.0
18.106528,0.012959228132722198,0.0
18.108972000000023,0.014666487666100105,0.0
18.11141600000002,0.01637374719947801,0.0
18.113864000000007,0.018360545986576337,0.0
18.116299999999995,0.021418279960313195,0.0
18.11875600000002,0.026617884307327113,0.0
18.121196,0.03395935902761809,0.0
18.123636000000005,0.040509437814990966,0.0
18.12608400000002,0.045848811788865095,0.0
18.128532000000007,0.049046315389462164,0.0
18.130980000000022,0.051312653430280915,0.0
18.13342,0.05108033600480364,0.0
18.135856000000015,0.047650514978729304,0.0
18.13830000000001,0.04422069395265497,0.0
18.140740000000022,0.047713038766290974,0.0
18.14318400000002,0.05092584432620657,0.0
18.145628000000016,0.05213654913970531,0.0
18.14806000000001,0.056512837684876485,0.0
18.15051600000001,0.06399218617415844,0.0
18.152956000000017,0.07081801249951324,0.0
18.155404000000004,0.07975189347135125,0.0
18.157848,0.09096362272758803,0.0
18.160296000000017,0.11492833885126238,0.0
18.162740000000014,0.15327605553645368,0.0
18.16518000000002,0.1993960660660966,0.010863367468964855
18.16761600000001,0.2511465000669142,0.021683984116133842
18.170060000000007,0.3144864379499137,0.031880425042000345
18.172504000000004,0.3945835641931845,0.04155987089076529
18.174948,0.4914851006249698,0.05082844257684583
18.177392,0.6098940968724043,0.059473502626470144
18.17982800000001,0.7431526243901795,0.06788418933333244
18.18227200000001,0.8885597342975775,0.07635312226030136
18.18471200000002,1.0487538516877546,0.08473100087832709
18.187156000000016,1.2237502785200294,0.09300017236082272
18.18961200000001,1.4006677685436837,0.1013810648747386
18.192056000000008,1.5907122283449824,0.10967462909800121
18.194503999999995,1.792765500909044,0.1180025951252116
18.196944,2.0087371391836677,0.1261839267976485
18.199388,2.232203427906892,0.13432285914674919
18.201832,2.4666113859219787,0.14232709807016553
18.20428800000002,2.7086103339000216,0.15013862945539205
18.206732000000017,2.9579226284451696,0.15771734970898646
18.209171999999995,3.197462424257318,0.16517619608038941
18.21161600000002,3.423690154694588,0.17258640047132628
18.214060000000018,3.64601002315338,0.16902706857311403
18.21650400000001,3.8625596985141364,0.16546710113619323
18.218952,4.066448934806075,0.16250489942946458
18.22139200000001,4.251998190871903,0.16007934912455202
18.223828,4.417577453017545,0.15812875636133067
18.22628400000002,4.557272966802367,0.15692440248852282
18.228724,4.683701741182684,0.1559574829283126
18.231168,4.8011475169050515,0.15494884512200838
18.233612000000026,4.908866119864793,0.1539330192961811
18.236064,5.00033939114346,0.15302977169148843
18.238508,5.086135017122711,0.152021155917389
18.24095200000002,5.158756451496073,0.1511820458613485
18.24338400000002,5.224164670532425,0.15023887856988022
18.245832000000007,5.27491034975354,0.1493849394862992
18.24827200000001,5.319978383675236,0.14847717734464386
18.25072400000002,5.354618500842138,0.14771396604250142
18.253164,5.376641609052724,0.14719629054944183
18.255600000000012,5.387350960919108,0.14691813329143405
18.25804400000001,5.395219594277917,0.14674985614760092
18.26048800000001,5.399084026143889,0.14667067383790663
18.262932000000006,5.3935895805838365,0.14681811174190657
18.26538400000001,5.383903942075846,0.1471205954322033
18.26782800000001,5.373519455433555,0.1474731605227785
18.27028000000001,5.371515458829269,0.1476680311456786
18.27272000000002,5.375750081889711,0.14776424408305305
18.275164000000014,5.3898082172271335,0.1476997849804416
18.27760800000001,5.406380309990171,0.14760503805041553
18.280056,5.427143595701145,0.1473643768309914
18.2825,5.440737096187613,0.14724084102631874
18.284944,5.4557736189130575,0.14711343413604158
18.287380000000013,5.4705778242130245,0.14695409656874947
18.28982400000001,5.487571121714511,0.14668719690106616
18.292268000000007,5.499908591417107,0.14650572753093472
18.294712000000004,5.505820449999871,0.14648175582279024
18.29716000000002,5.505446467089666,0.14660695398072646
18.299596000000008,5.507446671978212,0.1467118459734894
18.302052000000003,5.516756431718126,0.1466952364809448
18.304496,5.5295113144434325,0.14663375276301982
18.306936000000007,5.539332930862544,0.14663006522594735
18.309384000000023,5.550457799893771,0.1466311523674134
18.311836,5.569591071910667,0.14645692247741712
18.31428,5.5961283424354145,0.1460552422169515
18.316732,5.622992374042126,0.145583340864987
18.31916800000002,5.641336145983972,0.14527640740320413
18.321612000000016,5.656886421246484,0.1450194069725429
18.324051999999995,5.6679206383369625,0.1448347433279339
18.32650000000001,5.673926940576213,0.14470868137882117
18.328944000000007,5.670993674270018,0.1447662967340425
18.33138,5.667501329456382,0.14486386013334474
18.33382400000002,5.664520841321942,0.1449743633624449
18.336268000000015,5.660841505053203,0.1451331528210701
18.338716000000005,5.6619577662102145,0.14520050752909736
18.34116800000001,5.6672179984869215,0.14517660991362732
18.343616,5.679555468189516,0.14500323119422018
18.34607200000002,5.697619700877642,0.1447261061996798
18.348512,5.714660220207372,0.14442635155987896
18.350956,5.725090032820038,0.14419723180253552
18.353400000000025,5.730212391327753,0.14404168329878403
18.355856000000017,5.738407785768525,0.143819790357722
18.35830000000001,5.747953654649655,0.14355266988444862
18.36074400000001,5.7548457964783095,0.1433255339966824
18.363184000000015,5.754660700881076,0.14324404666734128
18.36562800000001,5.748841390096929,0.1433044518874212
18.368068000000022,5.745256497484675,0.14335695934911202
18.37051200000002,5.74232323117848,0.14341317745272708
18.372956000000016,5.741531835245562,0.14341930380027873
18.375392000000005,5.744604871178617,0.14335353696233785
18.377848,5.752193965283704,0.14321812041084556
18.380296000000016,5.7637872608816245,0.14299927332566312
18.382744,5.775939634986985,0.14274306826880204
18.385192000000018,5.789070396480367,0.14242144733464251
18.387640000000005,5.792749732749106,0.1422673775545309
18.39008800000002,5.792285097898153,0.14220401613553846
18.39254,5.785534621554228,0.14228067884908263
18.394984000000026,5.7714745903589355,0.14247218829367397
18.39742800000002,5.756343623977005,0.14268703669667585
18.39988,5.743866384647549,0.14286442317238232
18.40232400000002,5.734182641997428,0.14299673535479562
18.40476800000002,5.726873087146063,0.14310974006499969
18.407212000000012,5.722776337854612,0.14314787154022446
18.40965600000001,5.71295282557763,0.14328808130553033
18.41209600000002,5.702198147740872,0.14344634551431823
18.414540000000017,5.700383038449559,0.14342645984301253
18.416979999999995,5.698056072479048,0.14339363183962156
18.41941600000001,5.698290285762394,0.14328206516067962
18.421872000000008,5.695219145687209,0.14320402294867954
18.42431200000001,5.68856311299977,0.14317854959095921
18.42675600000001,5.681255454006273,0.14314919436111145
18.42920000000001,5.67101452870658,0.1431758661859716
18.43165200000001,5.656909171540915,0.14327489120977674
18.43409600000001,5.643874749561887,0.1433457145097023
18.436540000000008,5.636287551314669,0.14333448913063085
18.438976,5.630842223440729,0.14327340330231836
18.441420000000026,5.63196227631348,0.14305330808181582
18.44386400000002,5.638017696238842,0.1427354121234963
18.446308000000016,5.644212885791066,0.14240850943756997
18.448752000000013,5.649337140156651,0.14210774766431553
18.45118400000001,5.6563237256417915,0.14177810696131102
18.453632,5.659073792208621,0.1414968415911308
18.45607200000001,5.659821758029034,0.14125731522084684
18.45852000000002,5.668857666088835,0.14084195498561727
18.46096800000001,5.6857622075074445,0.14028302457498454
18.463412000000005,5.698942086686939,0.13978908386703545
18.46586400000001,5.713192901053073,0.13927126974576773
18.468304000000018,5.727303945792347,0.13876904254153694
18.470744,5.748864315009847,0.13815870498468558
18.47319200000001,5.772147245720043,0.1375277099628081
18.47563600000001,5.795430176430239,0.13689876532438514
18.47808000000001,5.822065682327211,0.13619177929570084
18.480524000000003,5.854055864157376,0.13537021486215026
18.48296000000002,5.881762305240988,0.13464367955378598
18.485408000000007,5.907094558525843,0.13393511621226417
18.487852000000004,5.928702149571587,0.133280694522214
18.490296,5.947236704684276,0.13268976482955902
18.492744000000016,5.964979863864045,0.13210685692428317
18.495180000000005,5.983793958230454,0.13150497912976422
18.497636,6.002887591850581,0.13088696603938305
18.500076000000007,6.017604936925538,0.13031789809336164
18.502520000000004,6.035255548306692,0.1297007477923274
18.504964,6.04890195819501,0.1291527078821615
18.507416000000006,6.059335562523414,0.12867612431280906
18.509860000000003,6.06339077756023,0.12828490356403016
18.512304,6.067725531850765,0.1278771056269932
18.514740000000018,6.071408659835243,0.1274646635604134
18.51718400000001,6.068433859274413,0.12714787456786444
18.51962800000001,6.056938799048717,0.12695314108935302
18.522076,6.047865148450018,0.12669840604457844
18.52451600000001,6.03786033229154,0.12645549514832763
18.526956000000013,6.025434106506069,0.12627138589604087
18.529412000000008,6.00872413997404,0.126169668267647
18.53185200000001,5.992014173442013,0.12606868725428805
18.5343,5.97809770358932,0.12592966263528307
18.536748000000017,5.967905895975741,0.12574133992412495
18.53919200000001,5.960647354668356,0.1255077444768801
18.54164,5.952178108547472,0.12530304968924175
18.544084,5.940775596120393,0.12514246155533
18.546524000000005,5.929093544439594,0.12499860810072408
18.54897200000002,5.922067320557686,0.12479459169722368
18.551420000000007,5.910105729623167,0.12466671223702838
18.553864000000004,5.902427879435201,0.12445597692947606
18.55630400000001,5.892608158873959,0.12428607486580508
18.55874,5.886233561298109,0.12408538655759731
18.561188000000016,5.879439654841679,0.1239103908783278
18.563628000000023,5.8739490009973645,0.12374620783923437
18.56607200000002,5.877118376444775,0.12345914684984835
18.568520000000007,5.884664040437357,0.12312915440475669
18.570960000000014,5.888857129243164,0.12287042457069551
18.57341600000001,5.894912549168527,0.12258900260348828
18.575856000000016,5.905111940213584,0.12223754423602982
18.578295999999995,5.920386467938112,0.12180547657776251
18.58074400000001,5.938873801222557,0.12131362226873973
18.583192,5.9534967026410275,0.12087739020408092
18.58564000000001,5.967979834432638,0.1204524571798718
18.58808000000002,5.976316894358139,0.120127470434324
18.590516000000008,5.987587220589835,0.11976191323768152
18.592960000000005,5.998158698687229,0.11943567173906829
18.595416,6.009801111971262,0.1190911186826686
18.59786,6.019161885255158,0.11879633252221565
18.600304000000023,6.0371826878307795,0.11838725213534898
18.60274000000001,6.05464441189896,0.11801504322188958
18.60518400000001,6.078112438206389,0.11755591300162699
18.607628000000005,6.099578363767405,0.11712993594616344
18.61007600000002,6.11997335414178,0.11672232189544533
18.612528,6.138785552650319,0.11632009468546471
18.614971999999995,6.14958934817319,0.11603648912794359
18.617428000000015,6.163605949255977,0.115700812235309
18.61987200000001,6.176551615152126,0.11538186731611855
18.622312000000026,6.189357511421413,0.11507328217110425
18.62476000000001,6.196157105451451,0.11485180107414222
18.627208,6.20025575060077,0.11470144408769405
18.62965200000002,6.203143690936591,0.11457797696684688
18.63209600000002,6.210268150190723,0.11442906586019592
18.634532000000007,6.214459343138661,0.11431808390326513
18.636980000000023,6.226519169445407,0.11410286239414943
18.63942400000002,6.236437125378874,0.11392504168637568
18.641868000000017,6.253711857991952,0.11363149465490321
18.644312000000014,6.268984489858611,0.11336642977418351
18.646748,6.283325956165493,0.1131105601980201
18.649204,6.291381580979403,0.11295528298079374
18.651647999999994,6.298506040233535,0.11281001398173177
18.65409200000002,6.301486528367973,0.11272801333208801
18.656544,6.301393980569356,0.11269008563563877
18.65899200000001,6.302232598330517,0.1126424968040834
18.66144,6.307447504636849,0.11256348719588143
18.663884,6.320531044301989,0.11238500488986748
18.666324000000003,6.327328742474157,0.11230341691014434
18.66877200000002,6.340784369191634,0.11214951156710147
18.671220000000005,6.355962557401808,0.11198680750501758
18.673664,6.37793844378415,0.11174535107751994
18.67610400000001,6.397540142367737,0.11150728410977119
18.67854,6.4197955680038,0.11125171880594222
18.680988000000013,6.4375349354678315,0.11103434175570095
18.68342800000002,6.460069900357615,0.11076476022745996
18.685876000000007,6.478600663754564,0.11054962755992406
18.688324000000023,6.501135628644349,0.11028685585147177
18.69076000000001,6.516733125735103,0.11011047562231856
18.693216000000007,6.5339134146916935,0.10993175935043274
18.69565600000001,6.555097905141118,0.10970500213733894
18.69810000000001,6.576841474097982,0.10944697458404212
18.700544000000008,6.5987248126817075,0.10918173457575041
18.703012,6.623029560892431,0.10887196601508714
18.705456,6.653200841715543,0.10849569389566394
18.707899999999995,6.683651661792376,0.10810529824539893
18.71033600000001,6.707444553323901,0.10778276518857931
18.71278000000001,6.727512782616313,0.1074981445900403
18.715224000000006,6.750933587095499,0.10715796951912428
18.717668000000003,6.767696463029379,0.10688610825591197
18.720112,6.779291654485169,0.10664257199246824
18.722544,6.789164284448262,0.10641166023384109
18.72499200000001,6.804763677396885,0.10612682292095142
18.72743200000002,6.811982580307503,0.10591285050805184
18.72987600000002,6.824556159151315,0.10562371615133656
18.732327999999995,6.833544845382873,0.1053606684747052
18.73477200000002,6.841742135681512,0.10509799705102153
18.737224,6.843421267061704,0.10489123677472952
18.739664000000005,6.847382038442031,0.10464672403588712
18.74210400000001,6.849899787583384,0.10439635450508791
18.744552,6.847621939298987,0.10419266715406589
18.74700000000001,6.847206422134144,0.1039735897759061
18.74944400000001,6.845999509036384,0.10375487952451518
18.751884000000015,6.84036908556521,0.10360283651291446
18.754320000000007,6.8332956398550575,0.10344498915160348
18.756764000000004,6.826222194144908,0.1032869771322572
18.759208,6.8246431939948105,0.10304872148373949
18.761652,6.824135129031352,0.10279646399121974
18.764100000000013,6.821764732948336,0.10255909870553781
18.766536,6.82088458093254,0.10228524314243033
18.768992,6.821587220782579,0.10200953189461542
18.771436000000023,6.8144212272738125,0.10181353172509945
18.773876,6.800737074846596,0.10166926480724325
18.776324000000017,6.795992490964826,0.10142920281526518
18.778776000000025,6.785101835216945,0.1012616523019994
18.78122000000002,6.771277913162869,0.10112267246431965
18.78366800000001,6.75973563110893,0.10094691924980523
18.786103999999995,6.750986845734326,0.10074840097937894
18.78855200000001,6.7431692259195,0.10054248352948288
18.790992000000017,6.736422541291313,0.10032177868470507
18.793440000000004,6.7296758566631265,0.10010008700663695
18.795884,6.722277545728881,0.09987134172723518
18.798320000000015,6.716229709234995,0.09961353369851743
18.800776000000013,6.713813987181605,0.09929111679346851
18.80321600000002,6.711538034755076,0.09896280486221254
18.805660000000017,6.708330916768769,0.09864118750554444
18.808112000000023,6.703913093968961,0.09834195770098302
18.81055600000002,6.694699673743403,0.09808276667863036
18.81301200000001,6.685765792771566,0.09780864442734652
18.81545600000001,6.678414703665563,0.09753500762091108
18.81789600000002,6.672553858626781,0.09722609938901092
18.820340000000016,6.675772351760306,0.0968208239882927
18.822788000000003,6.682995046386662,0.09637436070000292
18.825236000000015,6.687424244333683,0.09595078752919446
18.827687999999995,6.694786708586902,0.09549913151789498
18.830128,6.709086640639148,0.09498104566565788
18.832572,6.721244702318117,0.09449141881965163
18.835016,6.732751137691026,0.09399471505422972
18.83746000000002,6.743186637877299,0.09351321204509087
18.83990400000002,6.7526909725037925,0.09303845032886704
18.842340000000007,6.763545781570645,0.09253517668276583
18.844796,6.773981281756918,0.09205395440925004
18.84724,6.786930739368806,0.09157231453484868
18.849684,6.7985297225403345,0.09111974846944401
18.85214000000002,6.805425656084728,0.09073864386857113
18.854600000000005,6.816186021495096,0.09032903969663998
18.857056,6.823081955039489,0.08994941659919421
18.859496000000007,6.8364960475023295,0.08952895760760507
18.86193600000001,6.8505617662712295,0.0891171097601824
18.86438000000001,6.863836089107211,0.08870594300460848
18.866828,6.875340628622253,0.08834180316035642
18.869276000000013,6.881490492204102,0.08804144602169234
18.87172000000001,6.883496384666257,0.08778364459523122
18.874160000000018,6.8870850689942475,0.0875296128770726
18.87660400000001,6.893746789255295,0.08724754425349188
18.87904400000002,6.897475243210147,0.08699015385250858
18.88149200000001,6.903066028284556,0.08672264124274832
18.883932000000016,6.9070267996648855,0.08649304550685205
18.886368000000004,6.9089854702987985,0.08628023591396097
18.888824,6.913597867985185,0.08605919614708249
18.89127200000001,6.921655388656966,0.08583229670454938
18.89371600000001,6.928781743768968,0.08561037015199419
18.896168000000017,6.930693192574637,0.08544089440173423
18.898616000000004,6.9327444110071665,0.08526504291157941
18.90106400000002,6.93921913981311,0.0850353836701954
18.903508000000016,6.94196920637994,0.08482682053155441
18.905947999999995,6.947372999999245,0.08460937042897695
18.90839200000002,6.951705858431911,0.08440527886377514
18.910840000000007,6.955759177610857,0.08421450824108645
18.913284000000004,6.959393187909222,0.08404367885485228
18.915728,6.964237903021085,0.08385462202391208
18.91816400000002,6.971876114812284,0.08365079465367951
18.920608000000016,6.9871034207085705,0.08340315146176747
18.923052000000013,6.998326525112024,0.08318806449318772
18.92549600000001,7.0040551839554235,0.0830365178289305
18.92794800000001,7.010295699478021,0.08290035890814222
18.930380000000014,7.013602948694422,0.08278474586082979
18.93284,7.020914399403658,0.08263742916429892
18.93528000000001,7.035023548285062,0.08244610013490003
18.93772800000002,7.045128495673633,0.08228637709396644
18.940176000000008,7.053231342315786,0.08214355166054156
18.942623999999995,7.064267455264135,0.08198147799519301
18.94507200000001,7.0774454385857615,0.08179699045022873
18.947516000000007,7.08820201228039,0.08164695910145563
18.949952,7.0988188163481585,0.08150451548075588
18.95239600000002,7.1139516785879575,0.08134814477602088
18.954856000000007,7.130946871947313,0.08118409775484846
18.957300000000004,7.143426007134639,0.08103532654192848
18.959744,7.157395386389182,0.08085777469700281
18.962180000000014,7.173506636017004,0.08066012834358859
18.96462400000001,7.194553252697436,0.08043183560082169
18.96706800000001,7.216810574191368,0.08018867915929227
18.96951200000001,7.232270197513132,0.07998781086976585
18.97196400000001,7.250663087141089,0.07976851940276031
18.974400000000003,7.271617156022906,0.07950945718428089
18.976856,7.289917497852247,0.07925603811854719
18.979308000000003,7.311151105987784,0.078984521758803
18.981752,7.331872857444122,0.07870090307278069
18.984196,7.347938781101569,0.07844020125453287
