Time,Force,Position
19.579884,0.04866067935154894,0.0
19.582264,0.04866067935154895,0.0
19.58466,0.04866067935154895,0.0
19.587048,0.05249676033170488,0.0
19.589432,0.06519494193942235,0.0
19.591828,0.09222890228041357,0.0
19.594216,0.14016402210137,0.011392103910425532
19.596596,0.19880470207297324,0.021944604555833025
19.598996,0.26414674070238964,0.03249683834348573
19.601384,0.338284786534653,0.0432811384959009
19.603764,0.4188899777413831,0.054203802767332554
19.606164,0.5241209906671916,0.06413513227892627
19.608548,0.6481585145279314,0.0735171005355442
19.610932,0.787045569659012,0.08266513351690433
19.613336,0.930212573820908,0.09201380668443218
19.615724,1.0804058018647116,0.10138879876048897
19.618108,1.2472164486419266,0.11056070544611615
19.620504,1.4339045415407108,0.11948839963633574
19.622892,1.6300874897766437,0.12834332647424093
19.625272,1.841119969282917,0.13714762257776592
19.627668,2.0671682040602937,0.14582760377758824
19.630056,2.3107669189887288,0.15423119011639955
19.632436,2.5697289177245723,0.16235741544663623
19.634832,2.833003008092787,0.17027064416923016
19.63722,3.085201347115887,0.17813394270115063
19.6396,3.315661804755729,0.18604792741895965
19.642,3.5225673758631317,0.18265008152415638
19.644384,3.715135272379391,0.18017905415558094
19.646768,3.899930875051199,0.1777082936447603
19.649164,4.077467936415623,0.17492588942920148
19.651552,4.242858311248292,0.1719981950763596
19.653932,4.380177741376491,0.17019891923483477
19.656332,4.500413222062454,0.16893887890087464
19.658716,4.604448697037718,0.1680254116882164
19.661112,4.706765402236023,0.16675415274547623
19.663512,4.792604458327777,0.16556414998869246
19.6659,4.85703049826037,0.1646906534110149
19.66828,4.90837679024356,0.16397028251108597
19.670676,4.95032077468822,0.16330294726945038
19.673064,4.979417328608956,0.162742701514718
19.675448,4.991429933087457,0.16237420061401958
19.677844,4.983657639243005,0.16230345586574565
19.680232,4.956006003419116,0.16261710574073782
19.682612,4.915782684609285,0.16330658878739054
19.685016,4.879608893262659,0.16398280003285312
19.687404,4.847392081580623,0.16462033068696513
19.689788,4.816525744338947,0.16521525533491346
19.692192,4.791153852657324,0.16562217695796166
19.69458,4.767876609520735,0.1660181075399086
19.69696,4.746786562727798,0.16644564958012656
19.699356,4.72951372597259,0.16683157020860773
19.701744,4.719690213695609,0.16704454966980226
19.704128,4.7075850614184915,0.16734040567648326
19.706524,4.702137837686681,0.1674656633895583
19.708912,4.6935703561935735,0.16773772995449981
19.711292,4.696596170298386,0.16770799955841695
19.713692,4.706838991455947,0.16746409991185818
19.71608,4.7094927185084225,0.16740927889780166
19.71846,4.708980861829224,0.1673962407359156
19.72086,4.710982962575642,0.1673397819833926
19.723248,4.713496920001256,0.1672949794830783
19.725628,4.718804374106205,0.16718130456137623
19.728028,4.733423483808939,0.16683877405872044
19.730416,4.7561907661242,0.16624837756611455
19.732796,4.779330135491797,0.16569262405013171
19.735196,4.80470392303129,0.1651154644647297
19.737584,4.834314229489092,0.16445986153844172
19.739964,4.858337542588225,0.16394582242508038
19.74236,4.883339243075379,0.16335983356106953
19.744748,4.908900022069975,0.16274083823259688
19.747132,4.934181261810849,0.16215099867326427
19.749528,4.9549464433796935,0.1616535253559181
19.751916,4.976410473082838,0.16109217566833225
19.7543,4.997502415733644,0.16051896734861304
19.756696,5.017291105772336,0.15994529122350962
19.75908,5.029723019131417,0.15959612117531044
19.761464,5.041316314729337,0.15931966482618867
19.76386,5.057705207753011,0.15892597209238135
19.766248,5.073814561522961,0.15855105348023035
19.768632,5.094347425666329,0.15804665050330713
19.771028,5.121538218355003,0.1573896441990698
19.773416,5.148961328469155,0.15677240178170793
19.7758,5.170937214851498,0.15627438049330394
19.778196,5.189328208621586,0.15585105134224872
19.780584,5.206415949779559,0.1554280293219329
19.782964,5.228578827617005,0.1548894005377772
19.78536,5.249158913588614,0.15437158142403276
19.787752,5.2718808699335,0.15379306039433188
19.790132,5.291529790345331,0.1532974801563819
19.792528,5.308617531503305,0.15289581718104728
19.794916,5.325705272661278,0.15249670082441735
19.797296,5.350102568670618,0.15196508321542426
19.799696,5.376501965426375,0.15138898924536326
19.802084,5.398897160689297,0.15090859614705993
19.804464,5.418870946325223,0.15050119463613404
19.806864,5.440986602334425,0.15003717803542493
19.809252,5.464732272037707,0.14951377819727213
19.811636,5.486243523569094,0.1490030723371955
19.814032,5.509384788794561,0.14842261151853786
19.81642,5.5300120965944135,0.14788886859151013
19.818804,5.551198482901707,0.14732990919701133
19.821208,5.573455804395639,0.1467489020966861
19.823596,5.595573356262711,0.1461760631126548
19.825976,5.616759742570005,0.14561915916259954
19.828372,5.634733323317383,0.14513931852615353
19.83076,5.6465608321986505,0.14480330175348513
19.83314,5.664115104065447,0.1443698698506435
19.835536,5.682460771865162,0.14393270391434912
19.837924,5.69908387817218,0.1435154310895201
19.840308,5.717336998173278,0.14303798837954734
19.842704,5.736661053361015,0.14253986236696384
19.845092,5.754542086309775,0.14205392005001077
19.847476,5.770840327392699,0.14158170511824436
19.849872,5.783833215117091,0.14113535310545028
19.85226,5.802041009147816,0.14057585732471156
19.854644,5.820760659857738,0.14003299818399634
19.857048,5.831192368328273,0.1396654739848394
19.859436,5.843858494970702,0.13929030626202593
19.86182,5.858898809411884,0.1389020193790132
19.864216,5.868816765345352,0.13866573263816043
19.866604,5.874171441278545,0.13854635750138125
19.868984,5.880085195719177,0.13839223180397972
19.87138,5.886930115719589,0.13822355006608675
19.873772,5.894706201279778,0.13804029028139153
19.876152,5.907557423519441,0.137757878543286
19.878552,5.920827954639684,0.13744778947336392
19.88094,5.924367521281563,0.13731027607315904
19.883324,5.926184526430745,0.13719239784249238
19.88572,5.931586424192181,0.1370268214581949
19.888104,5.934055055647421,0.13691335617130831
19.890488,5.934521586356245,0.1368374192291911
19.892884,5.929493671505016,0.1368854540930185
19.895276,5.9217648077730685,0.13701679887697782
19.897656,5.924138995571823,0.13700174414650923
19.900056,5.923719686691243,0.13702866241176304
19.902444,5.92013479407899,0.13707523146649087
19.904824,5.922835742959709,0.13699291265001207
19.907224,5.927026935907644,0.13686169102846435
19.909612,5.929635336989746,0.1367413518774156
19.911996,5.938157492512481,0.13647280125010883
19.914392,5.947378496169516,0.13616000494006786
19.91678,5.953386694266636,0.13591603575201516
19.919164,5.960186288296674,0.13566810048701541
19.921564,5.965775177513213,0.1354508062614351
19.923952,5.96642869967714,0.13531884898718502
19.926336,5.96521989072151,0.13521351531895007
19.928732,5.966013182512298,0.1350709563307747
19.93112,5.9693204317287,0.13490561422539285
19.933504,5.968763249079127,0.1348037920555809
19.9359,5.969928627922251,0.13468360381575448
19.938288,5.973515416392376,0.13450153461700523
19.940668,5.980454780049273,0.13424176525690223
19.943072,5.994471381132061,0.1338516728146812
19.945464,6.000898888109761,0.1335817687574719
19.947844,6.006255459900823,0.13333373932380133
19.95024,6.01426575874436,0.13305419399648746
19.952628,6.024138388707453,0.13275184660352404
19.955012,6.031449839416688,0.13252115032700715
19.957408,6.036759189379508,0.1323255885938836
19.959796,6.037133172289714,0.13221259942189778
19.962176,6.036156680759562,0.13213839985910392
19.964572,6.035971585162328,0.13205991868386938
19.96696,6.035134863259037,0.13197706645947493
19.969344,6.035508846169243,0.13186390254271613
19.97174,6.039235404266226,0.13167730902959618
19.974128,6.046826394229183,0.13143108580980348
19.976512,6.055069010498196,0.13118775374457656
19.978908,6.058655798968318,0.13100871828893385
19.981296,6.066666097811853,0.13073462970940797
19.983676,6.0780289718421665,0.13039165002992317
19.986072,6.087110205872342,0.13010215914260165
19.98846,6.097914001395213,0.12979826170977793
19.990844,6.10606406986561,0.1295267408708952
19.99324,6.1171474046422025,0.12920993634890438
19.995628,6.133166106471406,0.12881876218430582
19.998012,6.146391311621276,0.1284633792661477
20.000408,6.155332776024592,0.1281912158139318
20.002796,6.1645537796816265,0.12790231488364806
20.00518,6.172564078525162,0.1276404150538281
20.007576,6.1832281044211745,0.12735045554145122
20.009964,6.19668562699652,0.12702512258102394
20.012344,6.210282919198726,0.12669163543338696
20.01474,6.222669506587434,0.1263867373617248
20.017128,6.237058194722557,0.12605180090684784
20.019512,6.251307113230823,0.12572807993482388
20.021908,6.26369370061953,0.12543011059859918
20.0243,6.2814349639414315,0.12503637261122497
20.02668,6.306905090995278,0.12453751845403194
20.029076,6.328091477302572,0.12411855234447917
20.031464,6.3399189861838385,0.12385826236234604
20.033848,6.353608826184662,0.1235771370517243
20.036244,6.364365399879292,0.12333855341733022
20.038632,6.372700563946923,0.12315511034951251
20.041016,6.380244332081634,0.12297548437216267
20.043412,6.383923668350375,0.12284938697914978
20.0458,6.393469537231505,0.12264350459664279
20.048184,6.404365880552994,0.1224025424787539
20.05058,6.413399892754924,0.12218253871925397
20.052968,6.425786480143633,0.12189778566334028
20.055352,6.437521441226283,0.12160885309762988
20.057752,6.447673610443095,0.12132699251612836
20.06014,6.4581053189136295,0.12102996684138909
20.062524,6.47161006331722,0.12068633474086916
20.064924,6.483904102907311,0.12037156085469511
20.067312,6.495778833616821,0.12008187799891022
20.069692,6.507374025072611,0.11980831031474375
20.072092,6.514685475781847,0.11960965128638246
20.07448,6.513476666826217,0.11951040773465962
20.076864,6.513199023430365,0.1194006144919838
20.079264,6.521349091900762,0.11915394801257914
20.081652,6.525774498132046,0.11894841052175166
20.084036,6.535414810669662,0.11866295256550645
20.086432,6.549338863953832,0.11830803661181703
20.088824,6.567267118730835,0.1179027794534556
20.091204,6.586266308694478,0.11748183125647894
20.093604,6.601261297165287,0.11711910294151112
20.095996,6.617047681569014,0.1167558614831765
20.09838,6.637629663398492,0.11633922339558755
20.100776,6.655790235600973,0.11597224084799791
20.103164,6.6767443044827886,0.1155806967663229
20.105548,6.70077140929766,0.11515110340931838
20.107944,6.7233082700453135,0.11476022232957363
20.110336,6.743843030046549,0.11439758184656572
20.112716,6.762794998181949,0.11403887434513232
20.115116,6.783237210384566,0.11364458371302223
20.117504,6.805961062587323,0.11321307054128252
20.119888,6.826822583670522,0.11279765681226513
20.122284,6.852339932552613,0.11233537595968301
20.124676,6.881861482927537,0.11182532991773818
20.12706,6.908961623675464,0.1113680129468647
20.129456,6.938715491475865,0.11089099626086171
20.131848,6.962323287410155,0.11049893929680944
20.134232,6.980855946664975,0.11017351290296347
20.136628,6.991100663680404,0.10996060007685805
20.13902,7.000274445509197,0.10976426627374146
20.1414,7.011170788830684,0.10955908247709834
20.143792,7.024069232898591,0.1093321868742606
20.146176,7.031892540287024,0.10916874661545187
20.148556,7.043999588422012,0.10894490013222353
20.15096,7.051311039131248,0.10876994217423595
20.153344,7.054338749093929,0.10865649059990369
20.155724,7.059787868683608,0.1084989412805947
20.15812,7.0655165275270075,0.10832771663867255
20.160508,7.074178452676601,0.10812640963137683
20.162888,7.081769442639557,0.10794157922922466
20.165284,7.088289497415874,0.10777288112606702
20.167672,7.102026559244943,0.10751801506426656
20.170048,7.117114095514368,0.1072375408676299
20.172444,7.130339300664237,0.10697468856021164
20.174828,7.1421214835751305,0.10670682641980977
20.177212,7.154322975366604,0.10642021131794073
20.179608,7.168666337531356,0.10610486526132995
20.181992,7.185011800442523,0.10576717777539191
20.184372,7.208993579287021,0.10532438226795575
20.186776,7.2321839621986,0.10488227044797434
20.18916,7.253931322871203,0.10443698289704106
20.19154,7.2691605246253586,0.10404266004876798
20.193944,7.286950905633371,0.10359949984713936
20.196332,7.302878955521828,0.10317500417721295
20.198712,7.320669336529841,0.10273533244133569
20.201116,7.339670422351353,0.10227488696409619
20.203504,7.363606875225476,0.10177403753206088
20.205884,7.388334724032517,0.10127533632058129
20.20828,7.4099895369065045,0.10081233416901632
20.210664,7.428711083474295,0.10037632406310056
20.213044,7.442497262989473,0.09998587141351441
20.21544,7.445062233959071,0.09971614973738369
20.217828,7.443483233808974,0.09949343300530006
20.220208,7.441112837725956,0.09927121870278743
20.222612,7.435529636083024,0.09908769061364882
20.224996,7.428875499253454,0.09891749078691782
20.227376,7.42408369354344,0.09873435210292958
20.229772,7.416498391154094,0.09857043412088154
20.23216,7.405141204697389,0.09847199790850257
20.234556,7.393923787867545,0.09836656133764074
20.236952,7.3807042702912815,0.09828015413122396
20.23934,7.372000810887052,0.0981675472607332
20.241724,7.363017812229103,0.09806770613973408
20.244116,7.3521724824515955,0.09798026200614018
20.246504,7.342677627114448,0.09786657087081703
20.248888,7.330529044724825,0.09776480125065287
20.251284,7.309440893789756,0.09774449255005574
20.253672,7.289283908414466,0.09771687278545896
20.256052,7.271268793412452,0.09766348861914909
20.258448,7.254324613597078,0.097597329356593
20.260836,7.244178131953871,0.09747526113906461
20.263216,7.245252858856248,0.09724059742593265
20.26562,7.249260852064821,0.0969810568668429
20.268008,7.254060241206311,0.09672271905614999
20.270388,7.26579709814683,0.0964027925791682
20.272792,7.278744659900847,0.09606552696375485
20.27518,7.289178264229251,0.09573468871551868
20.27756,7.306828875610405,0.09533282766399537
20.279964,7.324247169566079,0.09490488841692743
20.282352,7.343248255387591,0.09447907714963255
20.284732,7.363971902701801,0.09404746459330121
20.287128,7.385254628523449,0.09359337922622113
20.289516,7.408539455091514,0.09312449650814622
20.2919,7.432475907965637,0.0926630419801733
20.294296,7.45613282158604,0.0922174120059551
20.296684,7.486307894124893,0.09173592130878933
20.299064,7.516343197036885,0.09125615473490738
20.301468,7.5426538377097625,0.09079980135817521
20.303856,7.567753773569141,0.09036348778791303
20.306236,7.596997680548214,0.08989039824209791
20.30864,7.622656694915034,0.08943550605189757
20.311028,7.641518011109686,0.08903380295150203
20.313408,7.658237456931061,0.08865521612686846
20.315804,7.6721634060731,0.08829224743694469
20.318192,7.686089355215137,0.08793356477238105
20.320572,7.697593894730181,0.08760992165698583
20.322968,7.711472622043977,0.08729103315614879
20.325356,7.719717134170859,0.08704085920182954
20.32774,7.730335834096497,0.08679535821994377
20.330136,7.7381610373428,0.08656404492266807
20.332524,7.746126010215963,0.08632701827281453
20.334904,7.751529803835267,0.08612997173564799
20.3373,7.753720791894657,0.08596539573342285
20.339688,7.754840844767408,0.08581131749739618
20.342068,7.753027631333963,0.08567709992363949
20.344468,7.746139281221048,0.08558422340846027
20.346856,7.7431153629741045,0.08546677372498974
20.349236,7.741022610286939,0.08534433963020426
20.351636,7.738138461666857,0.08522037400353139
20.354024,7.7306910330465,0.08515069103399522
20.356404,7.724174769985923,0.085076198740575
20.358812,7.722174565097373,0.08498529053887909
20.361196,7.722595769835824,0.08486176627086756
20.36358,7.728603967932944,0.08471245143601507
20.365976,7.731539130097007,0.08458875367998417
20.368364,7.737687097820987,0.08443491205742411
20.370744,7.741041568865632,0.08429416832681033
20.37314,7.746026053604357,0.08411982772450506
20.375528,7.749427746477245,0.0839429046618045
20.377908,7.7608378423358015,0.0837112396700683
20.380312,7.772387707821216,0.08347440775485328
20.3827,7.785939674053049,0.0832237966518103
20.38508,7.801773280285019,0.08294818714880459
20.38748,7.819236900211068,0.08264006955531077
20.389864,7.840704721629951,0.0823051759029825
20.392244,7.860310211929277,0.08197631435157517
20.394644,7.879264075922546,0.0816411579126408
20.397028,7.898869566221871,0.08131351349460661
20.399408,7.920337387640754,0.08097877322109458
20.401804,7.9414331220073,0.08062369923905877
20.404192,7.962109547493265,0.08028667896457012
20.406584,7.976919440366839,0.07998521052112281
20.408992,7.991589563613553,0.07969149500743107
20.41138,7.998810362382041,0.07942892356353014
20.41376,8.003377434098056,0.07917128520826369
20.416156,8.003009138761456,0.07894411213455818
20.418544,8.00692458417141,0.0786798386884767
20.420924,8.011491655887422,0.07842410904090134
20.42332,8.013916857230159,0.07818682288181686
20.425708,8.007402490027447,0.07800582119352925
20.428088,8.002750453944296,0.0778180441715898
20.430488,7.9974467915550855,0.07762265608634107
20.432872,7.993074294725654,0.07742443927341083
20.435252,7.990005050508337,0.0772423004368028
20.43766,7.985864871104383,0.07706967140149334
20.440044,7.987870763566537,0.07685516142118538
20.442424,7.988805720842054,0.07664945394591981
20.444828,7.993233022931206,0.07640748478616624
20.447216,7.9979398642740795,0.0761555437523259
20.449596,8.006511137482926,0.07588625361129124
20.451996,8.015781258826072,0.07559011681886219
20.454384,8.030266286475554,0.07525691564111844
20.456764,8.044891083751894,0.07492020768201416
20.459164,8.066313579200402,0.07455235733365978
20.461552,8.094673542447941,0.07414970537508973
20.463932,8.127037707188313,0.07372441956144793
20.466328,8.15018276412952,0.07335732648519319
20.468716,8.174538525884223,0.07297935289674054
20.471096,8.200896388385345,0.07258993592857602
20.4735,8.228185416446243,0.07219546180305582
20.475888,8.253332574133866,0.07181957103403437
20.478268,8.280342062941045,0.07144056703701239
20.480672,8.304697824695749,0.07106651226637341
20.48306,8.32653962902484,0.07069112110833226
20.48544,8.346658871861234,0.0703166713052795
20.487836,8.362773913204792,0.06996536259864397
20.490224,8.382753386414326,0.06960028620892021
20.492604,8.398588888504166,0.06926327295328662
20.495004,8.415355556153783,0.06892636366128027
20.497392,8.427978252683705,0.0686155255280336
20.499772,8.440833266639109,0.06832954325922405
20.502176,8.45261734540787,0.06805298909234617
20.504564,8.46398211529605,0.06779324034103909
20.506944,8.472134079624317,0.06755703460221126
20.50934,8.473069036899833,0.06736231550448883
20.511724,8.476006094921766,0.06715943161375579
20.514108,8.489233195929506,0.06689984372770885
20.516504,8.49831632581755,0.06666435350117043
20.518892,8.508470390892233,0.0664225069597264
20.521272,8.522908196713471,0.06615303803935628
20.523672,8.537765311415288,0.06586901525494156
20.52606,8.550899864624409,0.0655853754904304
20.52844,8.564825813766449,0.06530543162019599
20.530836,8.579543158841405,0.06502898211419793
20.533224,8.592910029476004,0.06476891312367497
20.535604,8.611352036790077,0.06448661999492313
20.538004,8.627140317051673,0.06420663947319506
20.540388,8.645861863619464,0.06391757651591035
20.542772,8.659508273507782,0.06365226399975316
20.545168,8.676087949702296,0.0633770306018082
20.547556,8.689082733284557,0.06310296321234586
20.549932,8.699144250560622,0.06283907414080567
20.55234,8.709625076717268,0.06256140492089322
20.554724,8.718523111008077,0.06227676160224762
20.557108,8.730633950858804,0.06197175301470439
20.559504,8.738600819589834,0.06168910972210743
20.561892,8.73827974608148,0.06144878127973589
20.564272,8.743033809252594,0.06118670416643379
20.566668,8.749929742796988,0.06091368005540342
20.569056,8.755475201901023,0.060658132705230614
20.571436,8.761672287311118,0.06041167174492383
20.573836,8.76758983346749,0.0601753516210163
20.57622,8.773088070743281,0.05995377813295981
20.578616,8.77965724320571,0.059726678713370125
20.581016,8.791441321974473,0.05947462440268765
20.5834,8.797219098503984,0.05924545464667712
