Time,Force,Position
19.553492,0.08659310819689875,0.0
19.555888,0.09218010155556869,0.0
19.558284,0.10470456271326747,0.0
19.560672,0.12058159905774207,0.0
19.563052,0.13310606021544086,0.0
19.565448,0.1460498302537203,0.0
19.567836,0.1562001036126648,0.0
19.57022,0.16392896734461176,0.0
19.572616,0.17272876626319728,0.0
19.575,0.18339089630133945,0.0
19.577384,0.18804672410023107,0.0
19.579788,0.19670675339195637,0.0
19.582176,0.21230425048271054,0.0
19.584556,0.226691042759966,0.0
19.586952,0.2401466694774431,0.0
19.58934,0.2540216050755008,0.0
19.59172,0.268176079927279,0.0
19.594116,0.28205101552533673,0.0
19.596504,0.28991964888414395,0.0
19.598884,0.29471524630989576,0.0
19.60128,0.29713665593689326,0.0
19.603668,0.2934119936977799,0.0
19.606052,0.28368102921941607,0.0
19.608448,0.27087702880799697,0.0
19.610836,0.26021489876985476,0.0
19.613232,0.2480625246644935,0.0
19.615628,0.23176617943943825,0.0
19.618016,0.21711182301575396,0.0
19.620396,0.20045536584565285,0.0
19.622792,0.18393867830241187,0.0
19.62518,0.16942409150558782,0.0
19.62756,0.156200782213588,0.0
19.629956,0.13875292911056872,0.0
19.632344,0.12487799351251093,0.0
19.634724,0.11114282754131342,0.0
19.637124,0.0999216189957304,0.0
19.639512,0.08655854007687033,0.0
19.641892,0.07454593559836925,0.0
19.644288,0.06853963335911871,0.0
19.646676,0.0569583128684898,0.0
19.64906,0.04616838831077901,0.0
19.651452,0.03859126931298381,0.0
19.65384,0.03301625106160546,0.0
19.656236,0.028372398370005436,0.0
19.658632,0.022657610491766882,0.0
19.66102,0.018153527427027066,0.0
19.6634,0.017653645855120952,0.0
19.665796,0.017653645855120952,0.0
19.668184,0.017653645855120952,0.0
19.670568,0.017653645855120952,0.0
19.672964,0.017653645855120956,0.0
19.675352,0.01636236835029673,0.0
19.677732,0.01636236835029673,0.0
19.680128,0.01386038603197377,0.0
19.682516,0.012149799646568916,0.0
19.6849,0.008716651768467632,0.0
19.687296,0.007285604636783198,0.0
19.68968,0.004643852691600025,0.0
19.692076,0.0,0.0
19.694476,0.0,0.0
19.69686,0.0,0.0
19.699244,0.0,0.0
19.701648,0.0,0.0
19.704036,0.0,0.0
19.706416,0.0,0.0
19.708812,0.0,0.0
19.7112,0.0019901256391252737,0.0
19.71358,0.0039802512782505465,0.0
19.715976,0.00676177285029393,0.0
19.718364,0.009543294422337313,0.0
19.720748,0.012324815994380699,0.0
19.723144,0.01776006461889883,0.0
19.725532,0.023195313243416966,0.0
19.727916,0.029561727427713427,0.0
19.730312,0.035928141612009884,0.0
19.7327,0.04136339023652801,0.0
19.73508,0.04372560292799077,0.0
19.737476,0.04501688043281499,0.0
19.739864,0.046587697191359634,0.0
19.742248,0.046587697191359634,0.0
19.744644,0.046587697191359634,0.0
19.747032,0.046587697191359634,0.0
19.749416,0.046587697191359634,0.0
19.751812,0.046587697191359634,0.0
19.7542,0.046587697191359634,0.0
19.75658,0.046587697191359634,0.0
19.758984,0.04459757155223436,0.0
19.761368,0.042607445913109096,0.0
19.763752,0.0398259243410657,0.0
19.766148,0.03704440276902232,0.0
19.768536,0.03426288119697894,0.0
19.770916,0.028827632572460807,0.0
19.773312,0.02339238394794267,0.0
19.7757,0.017025969763646214,0.0
19.778096,0.011019667524395657,0.0
19.780492,0.005584418899877522,0.0
19.78288,0.00437371408637878,0.0
19.785264,0.004373714086378781,0.0
19.78766,0.007027441138853532,0.0
19.790044,0.008458488270537964,0.0
19.792424,0.011891636148639247,0.0
19.794824,0.015324784026740531,0.0
19.797208,0.018897701531702026,0.0
19.799592,0.01953735273046835,0.0
19.801988,0.02138770874273341,0.0
19.804376,0.02188759031463952,0.0
19.80676,0.02188759031463952,0.0
19.809156,0.021887590314639525,0.0
19.811544,0.021887590314639525,0.0
19.813924,0.021887590314639525,0.0
19.816324,0.021887590314639525,0.0
19.818712,0.021887590314639525,0.0
19.821096,0.02438957263296249,0.0
19.823492,0.024389572632962486,0.0
19.82588,0.024029460687916587,0.0
19.82826,0.024029460687916587,0.0
19.83066,0.023936912889299534,0.0
19.833044,0.022913199530904153,0.0
19.835428,0.018688655719884754,0.0
19.837824,0.017385403107768954,0.0
19.840212,0.01395225522966767,0.0
19.842596,0.010519107351566385,0.0
19.844992,0.00694618984660489,0.0
19.847384,0.009363807757863886,0.0
19.849764,0.01238393428906839,0.0
19.852164,0.02559776429172202,0.0
19.854552,0.04983004456182521,0.0
19.856932,0.086815311699366,0.0
19.859332,0.13548263051770582,0.011582457922820822
19.86172,0.1997436547110614,0.022049416070112814
19.864104,0.27443069980134327,0.03226569551913758
19.8665,0.3572621257884143,0.04257688042782887
19.868884,0.4483424555781832,0.052918131053343004
19.871268,0.5558884593672112,0.06298823062424688
19.873664,0.6780970029714767,0.07272319864083826
19.876052,0.8128734378459455,0.08222894859116528
19.878436,0.9548750631647167,0.09180886751704079
19.880832,1.111259689045005,0.10123536726634663
19.88322,1.2841572107527957,0.11043886818800294
19.885616,1.4742432048087297,0.11940965553135965
19.888012,1.6778162805873542,0.12826035424377932
19.8904,1.8900002679715915,0.13709000427742127
19.892784,2.116429382148355,0.14567750735177845
19.895184,2.3505540091939827,0.15418260698679714
19.897568,2.594364274747601,0.1624957280224402
19.899952,2.834638765375078,0.1707013393068229
19.902348,3.0683063410012283,0.17875546463226138
19.904736,3.2866144245357094,0.18680328956428585
19.90712,3.4928683693370544,0.18324483231093985
19.909516,3.6800362639497473,0.18092066450458386
19.911904,3.8603630302777665,0.17877443267993137
19.914284,4.033895890149356,0.17647949879448907
19.916684,4.192720884235334,0.17420208778370808
19.919072,4.336930560334318,0.17219425573967018
19.921452,4.463636978110487,0.17064367569628852
19.923848,4.582803419467681,0.16923994206250048
19.926236,4.694477106234143,0.16775234222663948
19.92862,4.788974295759754,0.1664913031511419
19.931016,4.867505692858011,0.16543059257042161
19.933404,4.922434981595589,0.1647915869387861
19.935788,4.964377070182379,0.16429697660154055
19.938184,4.999011499775672,0.16382507887943656
19.940572,5.017678241083743,0.16362887447703955
19.942956,5.023218012614169,0.16354843460010887
19.945352,5.016187997016524,0.16369513973054226
19.94774,5.006224715112682,0.16391550497265372
19.950124,4.993001405820682,0.16428800929765605
19.952516,4.982664141006634,0.164643246590737
19.954904,4.971395710632808,0.16502087384600686
19.957284,4.965621725819035,0.1652224618259934
19.959684,4.957705870631986,0.16548688129286943
19.962068,4.950022332870412,0.16578375130526343
19.964448,4.951510681079762,0.1658793394282212
19.966848,4.953278568542834,0.1659527078266399
19.969236,4.958306483394062,0.16587033616996918
19.971632,4.956816239326843,0.1659363914177781
19.974028,4.958119491938959,0.1659393380489401
19.976416,4.9680827738427995,0.165734925982159
19.978796,4.977394429440583,0.16552976787174295
19.981196,4.993411235411918,0.16510324574843166
19.983584,5.007845249517415,0.16469379183666533
19.985964,5.020836241383938,0.16429352580254877
19.98836,5.03899491772855,0.16380248673087325
19.990748,5.059667551498776,0.1632674070649299
19.993132,5.08262182526914,0.16265658586479478
19.995532,5.102130976054111,0.16210952125041064
19.99792,5.125085249824475,0.16150845316207094
20.000304,5.151344876953372,0.1608667483786399
20.0027,5.1778368215077455,0.16025530552837894
20.005092,5.204608305315839,0.1596334442832488
20.007472,5.228865831698318,0.15905003999265035
20.009872,5.259921056252967,0.15832761314283836
20.01226,5.28790324487456,0.1577049210031563
20.01464,5.3173284557351295,0.15707934772443186
20.017036,5.34447202659556,0.15652126356446952
20.019428,5.371523049657375,0.15591163953328357
20.021808,5.395780576039853,0.1553675431653373
20.024208,5.41468342648914,0.15497740659903697
20.026592,5.431676723990627,0.15467525990989536
20.028976,5.449181878171311,0.15438798485289834
20.031372,5.47083100347169,0.15399770337819593
20.033764,5.496344560638043,0.15352923258549778
20.036144,5.519763469259362,0.15307261678097023
20.038544,5.547186579373514,0.1525336996887067
20.040932,5.573678523927887,0.1520165591425382
20.043312,5.601520942922619,0.1514507491398597
20.045712,5.6216817200136475,0.15099241217045273
20.0481,5.639468309305922,0.1505633177895876
20.05048,5.657534437851917,0.15011185297896773
20.05288,5.668663098598883,0.1498091794185693
20.055268,5.681002464159347,0.1494682815155056
20.057652,5.681376447069554,0.14934460138077427
20.060048,5.675185049233071,0.14939328251434042
20.062436,5.666991550650168,0.14948621696124265
20.064816,5.661871088000322,0.1495076344535405
20.067212,5.658473186843173,0.14950451826537225
20.0696,5.653632263447046,0.14950604047307736
20.071984,5.645346217065529,0.14955847592580013
20.07438,5.638690184378089,0.14954381897663754
20.076768,5.63245346057123,0.14949826546734024
20.079148,5.623563009711897,0.14949404998093535
20.081548,5.610436039934252,0.1495443375507389
20.083932,5.5940962645966925,0.14967541494935782
20.086316,5.571610417393022,0.14994571480422247
20.088712,5.549124570189352,0.1502141597044224
20.0911,5.5307826941053735,0.15037965490199726
20.093484,5.520309451380205,0.15038306750179228
20.09588,5.504621302348704,0.15050924901695967
20.098268,5.492657815556314,0.15056784202606627
20.100652,5.487352257309235,0.15050199487685684
20.103048,5.483397173502514,0.15039019932753855
20.10544,5.482375356001987,0.1502183492480175
20.10782,5.49006078962143,0.14982521582816888
20.110216,5.499748323987289,0.1493892660671883
20.112604,5.50850469279337,0.14897192456577615
20.114988,5.5163298960396725,0.14857064233599251
20.117384,5.524806725592033,0.1481719998902672
20.119772,5.5399414836897005,0.14764694519791252
20.122152,5.558661134399623,0.14706978179891622
20.124552,5.578172181042462,0.14649293041848319
20.12694,5.5936790261924685,0.1459957874494885
20.129324,5.607835396902116,0.1455417659931835
20.13172,5.6247852642911,0.1450371337801849
20.134108,5.645599563546056,0.1444561682310174
20.136488,5.663992453174014,0.1439447412821467
20.138888,5.671955530189308,0.14367711365757183
20.141276,5.672049973845794,0.14357227369800069
20.14366,5.680432359741668,0.14327658040887306
20.146056,5.686952414517985,0.14301674477314782
20.148444,5.692681073361384,0.14276562547211283
20.150824,5.6959883225777865,0.14258561108742662
20.153224,5.700086967727105,0.1423992548998739
20.155612,5.698691167316372,0.1423505025188582
20.157992,5.697155597278779,0.14231136676303477
20.160392,5.696271653547244,0.1422757533204651
20.16278,5.6961791057486275,0.14223409891014765
20.165164,5.695434931643952,0.14218885757896355
20.16756,5.691477951979362,0.1422184763545271
20.169952,5.6845877060085765,0.1423027227379662
20.172332,5.677837229664652,0.14237571336712165
20.174732,5.675882350746477,0.14236467613479062
20.17712,5.674858637388081,0.14233851368272896
20.179504,5.671972592910129,0.14234280497759685
20.1819,5.665361886193064,0.14240801198975378
20.184292,5.661312358729855,0.14239568836970087
20.186672,5.665411003879176,0.14221179079088112
20.189072,5.674817103133446,0.14195239076013494
20.19146,5.679659922387441,0.14181479840360295
20.19384,5.6845027416414355,0.1416781439419202
20.19624,5.689066021641712,0.14156123622899247
20.198628,5.696562567948181,0.14139020114088108
20.201012,5.700846308694734,0.14129156430016765
20.203408,5.706620293508509,0.14113951785830295
20.2058,5.712534047949141,0.14097898189175942
20.20818,5.7168650105239385,0.14083010996962936
20.21058,5.721615281979317,0.14065335759610442
20.212968,5.727948345300532,0.1404655981535906
20.215352,5.734980256756047,0.140231045754588
20.217752,5.7424314770921425,0.13996888416399605
20.22014,5.741874294442571,0.1398631343692208
20.222524,5.743738521419997,0.1396911993208762
20.224924,5.749746719517117,0.13943371777734082
20.227312,5.755754917614237,0.13917509489996044
20.229696,5.766838252390828,0.13881642592975454
20.232092,5.781646249406535,0.13840529211064215
20.23448,5.7975251816088775,0.1379777198374406
20.236864,5.809819221198969,0.1375969812491926
20.23926,5.822672339296499,0.1371798801492858
20.241648,5.832871730341556,0.13679576397397145
20.244032,5.841628099147638,0.13641314030121146
20.246432,5.846659805714605,0.13608675891890987
20.24882,5.859048288961181,0.13560993437351415
20.251204,5.871436772207759,0.13513432522684002
20.2536,5.8799608235883625,0.13472151109619096
20.255992,5.890998832394581,0.13428667877108394
20.258376,5.904690568253273,0.13382421100806532
20.260772,5.918522073738827,0.1333552129707405
20.263164,5.9340761407170755,0.13287209988750162
20.265544,5.952004395494081,0.13238024004610371
20.267936,5.9795238451225865,0.13173554108114685
20.27032,6.004482115497236,0.13116998131133933
20.2727,6.0262275803119705,0.1306748061915372
20.275096,6.050114915499983,0.13013744926706483
20.27748,6.070929214754939,0.12966108931366882
20.27986,6.088670478076839,0.12924621821636303
20.282264,6.100125899905769,0.12894824898218124
20.284652,6.116516688787311,0.12857314420288835
20.287028,6.132488168788271,0.12822382865976484
20.289432,6.152696167707543,0.12784007499170888
20.29182,6.17406764961207,0.12747466848921873
20.2942,6.1988842545019915,0.127077403625617
20.296592,6.221279449764913,0.12674562229240594
20.29898,6.24725953764009,0.12637997393468353
20.30136,6.280177093314294,0.1259099930355247
20.303756,6.312582792309301,0.12543237964035053
20.30614,6.342055224998113,0.12500258223970626
20.30852,6.369805096194228,0.12458873736597045
20.310924,6.398486132950121,0.12417098974634021
20.313312,6.42423390339982,0.12379722086573808
20.315688,6.448119342729962,0.12345167722122889
20.318092,6.4730757172467435,0.12309057546992905
20.320476,6.497892322136663,0.12273698983052024
20.32286,6.523220783705781,0.12239945421491852
20.325264,6.551342741954234,0.12203384028781844
20.327648,6.57825399538919,0.12169524824951217
20.330028,6.609309219943836,0.1212887734204447
20.332432,6.638222574125208,0.12092382065337914
20.33482,6.669557337933577,0.12051004191582373
20.3372,6.697586748383412,0.12011673014079141
20.339596,6.72603546771383,0.11970192631611959
20.341984,6.754112099991909,0.11927051830593965
20.344364,6.780466170777292,0.11885399502731718
20.346756,6.8029558096967016,0.11848880982895105
20.349144,6.820370311936639,0.11819834223910816
20.351524,6.839088066788692,0.11792148741316669
20.35392,6.861670253506718,0.11760264325650498
20.356308,6.887837332836997,0.11725593868659777
20.358704,6.9100002106744425,0.11696354738277265
20.3611,6.93179100145955,0.11665105115408358
20.363488,6.949717360378685,0.11638340600428304
20.365868,6.963779287431845,0.11616046875860433
20.368272,6.978400292992446,0.1159086674483067
20.37066,6.993720146687348,0.11562331144619183
20.37304,7.003453007023581,0.11539299502384738
20.375436,7.010532140307341,0.1151814648076693
20.377824,7.0186822087777365,0.11495510051702283
20.380204,7.028462290942213,0.1146856886181824
20.3826,7.035309106800494,0.11445128346188711
20.384988,7.044809649711251,0.11419836201497371
20.387368,7.051796235196392,0.11395762511918896
20.389764,7.055570015121618,0.11376459384315686
20.392152,7.0594835646737035,0.11356465219378535
20.394532,7.062605718292872,0.11336607050271132
20.396936,7.0688009078450955,0.11312756771928048
20.399324,7.067034916239894,0.11294530716504299
20.401704,7.056469125716107,0.11286323655636919
20.404108,7.04017657220679,0.11284077844972394
20.406496,7.022161457204777,0.11282932978843402
20.408872,7.003727033322183,0.1128394450183734
20.411272,6.987434479812865,0.11281741516146616
20.413656,6.971281695930409,0.11278865359056106
20.41604,6.9569912431675105,0.11274087968322184
20.418444,6.939487984844694,0.11274024996573308
20.420828,6.924917992828075,0.11270608420693567
20.423208,6.9155629071177875,0.11259861647205081
20.425612,6.903554094355023,0.11250965010760552
20.428,6.886190605659069,0.11249957275639802
20.43038,6.870549678455809,0.11247891004746517
20.432784,6.849042218640159,0.11252512999471713
20.435172,6.832190586623402,0.11252667362378169
20.437552,6.8176205946067805,0.11248926669316414
20.439952,6.803050602590161,0.11245128134114249
20.442336,6.788620380200401,0.11240590061748186
20.44472,6.769534330011751,0.11240276117691314
20.447116,6.758037373928186,0.11232372661861943
20.449504,6.750824158591175,0.11218070987405174
20.451884,6.7506881806800525,0.1119481474318196
20.45428,6.756278965754461,0.11165693327801485
20.456668,6.7640116212021475,0.11133427105469143
20.459048,6.770952880716915,0.11101307516343202
20.461444,6.781758572097655,0.11065102527101327
20.463832,6.791353558664897,0.1103144271860913
20.466212,6.802019480418778,0.10996216488424516
20.468608,6.811474697359159,0.10963249288568591
20.470996,6.817577339112766,0.10935776868026459
20.473392,6.822329506426014,0.10911207518020345
20.475788,6.8280128392990385,0.10885595827269262
20.478172,6.832904776239146,0.10860172554490377
20.480556,6.841940684298947,0.10829013984625047
20.482952,6.846041225306136,0.10803631632292644
20.48534,6.850933162246244,0.10778231200638487
20.48772,6.856756264746128,0.10752088189194907
20.490116,6.86523309429849,0.10724285637804135
20.492504,6.875152946089827,0.10696826982235798
20.494884,6.881859992321246,0.10674102736860358
20.49728,6.890941226351422,0.10651170749183297
20.499668,6.893876388515485,0.10636091185042046
20.502064,6.894809449933134,0.10623425754130253
20.504468,6.896673676910561,0.10610045612164246
20.506856,6.900120695753823,0.10596540527708907
20.509236,6.903707484223946,0.10582452573587751
20.511632,6.902219136014596,0.10574264543792111
20.514016,6.900591018178385,0.10566780842525839
20.516396,6.902035936275231,0.10555606978278291
20.518796,6.907624825491769,0.10539349660332117
20.52118,6.9172179162011425,0.10518689720233693
20.523564,6.928813107656931,0.10495748516197492
20.525964,6.940920155791919,0.10474209309824883
20.528352,6.956891635792879,0.10449251342781374
20.530736,6.971652410980342,0.10426193206273626
20.533132,6.984271315794528,0.10406072851533504
20.53552,6.993677415048797,0.10390280470167816
20.5379,7.00150072243723,0.10374693414317335
20.5403,7.016820576132133,0.1034938194062596
20.542684,7.034282300200313,0.10321278459750756
20.545068,7.0492300668428785,0.10294068269419533
20.547464,7.06617993423186,0.10264634845647974
20.549852,7.081547009755006,0.10235357161676537
20.552232,7.093049653412178,0.10209700368225628
20.554628,7.103621131509573,0.10184834901263602
20.557016,7.111119573673912,0.10163561207050585
20.559396,7.1258350228910015,0.10133884408038056
20.561792,7.141481637667868,0.10103596357134562
20.56418,7.155265921325177,0.10074896552733358
20.566576,7.165046003489654,0.10050481864712374
20.568972,7.17468631602727,0.10026944567947185
20.57136,7.18833083005772,0.09999614567287174
20.573744,7.198530221102777,0.09973536163984074
20.57614,7.20486518028186,0.09951000304989223
20.578528,7.216275276140415,0.0992314908681589
20.580908,7.229827242372249,0.09892685484098128
20.583304,7.249665050097053,0.09855155360747572
20.585692,7.267221217821718,0.09820864352024224
20.588072,7.275418508120358,0.0979725472458516
20.590468,7.283476028792139,0.0977441033352749
20.592856,7.294327046143253,0.09749756658697455
20.595236,7.307459703494505,0.0972205924699904
20.59764,7.322175152711592,0.09694488790041315
20.600028,7.3378217674884585,0.09666189903126811
20.602408,7.356541418198381,0.09634975443091365
20.604804,7.377263169654719,0.09601956472322976
20.607192,7.395191424431724,0.09571064680906118
20.609572,7.411397117716031,0.09540792282264948
20.611968,7.429465142119896,0.09509516278286397
20.614356,7.447533166523759,0.09478175801794375
20.616752,7.4621560679422325,0.09447999618453994
20.619148,7.471052206375172,0.09422137005919687
20.621536,7.484092315927807,0.09392028668606407
20.623916,7.493267993614469,0.09364749402000659
20.626316,7.503794145741489,0.09335296315290287
20.6287,7.51459983712223,0.09304757601698499
20.631084,7.517257355890443,0.09281874021713167
20.633488,7.525129780964989,0.09253772012371424
20.635876,7.538217112345867,0.0922037424231163
20.638256,7.550513047793826,0.0918700129103795
20.640652,7.562017587308868,0.09153778037915243
20.64304,7.569378155704217,0.09124643017652982
20.64542,7.574876392980009,0.09096598758089383
