Time,Force,Position
18.927068,0.08788615707588752,0.0
18.929448,0.08448839476814578,0.0
18.931844,0.07922830134084738,0.0
18.934232,0.07089517198049361,0.0
18.936612,0.06456414336655669,0.0
18.939016,0.055160078819564376,0.0
18.941404,0.045756014272572074,0.0
18.943784,0.04007661196469305,0.0
18.94618,0.0326746481641176,0.0
18.948564,0.026203849923320473,0.0
18.950948,0.018662116495884812,0.0
18.953344,0.012191318255087683,0.0
18.955732,0.006000059268010973,0.0
18.958128,0.003952771400628177,0.0
18.960524,0.002324792413826011,0.0
18.962912000000003,0.001627978986802166,0.0
18.965292,0.0,0.0
18.967688000000003,0.0,0.0
18.970076,0.0,0.0
18.972456,0.0,0.0
18.974852,0.0,0.0
18.97724,0.0,0.0
18.97962,0.0,0.0
18.982028,0.0,0.0
18.984416,0.0,0.0
18.986796,0.0,0.0
18.989192000000003,0.0,0.0
18.99158,0.0,0.0
18.99396,0.0003247263746863656,0.0
18.996356,0.00032472637468636555,0.0
18.998744,0.00032472637468636555,0.0
19.001124,0.0003247263746863656,0.0
19.00352,0.0003247263746863656,0.0
19.005908,0.0003247263746863656,0.0
19.008304000000003,0.0003247263746863656,0.0
19.0107,0.0003247263746863656,0.0
19.013088,0.0003247263746863656,0.0
19.015472000000003,0.0003247263746863656,0.0
19.017868,0.0003247263746863656,0.0
19.020252,0.0003247263746863656,0.0
19.022632,0.000509683122512521,0.0
19.025032,0.000509683122512521,0.0
19.027416,0.0034881365496736375,0.0
19.029796,0.008608460350111815,0.0
19.0322,0.01065574821749461,0.0
19.034588,0.010700935338460556,0.0
19.036968,0.010885892086286713,0.0
19.039364,0.010885892086286713,0.0
19.041752,0.010561165711600347,0.0
19.044132,0.010561165711600347,0.0
19.046532,0.010561165711600347,0.0
19.048920000000003,0.010561165711600347,0.0
19.0513,0.010561165711600347,0.0
19.053696,0.010561165711600347,0.0
19.056084,0.010561165711600347,0.0
19.058480000000003,0.010561165711600347,0.0
19.060876,0.010561165711600347,0.0
19.063264,0.010561165711600347,0.0
19.065648000000003,0.010561165711600349,0.0
19.068044,0.01056116571160035,0.0
19.070432,0.010376208963774192,0.0
19.072812,0.010376208963774192,0.0
19.075208,0.007397755536613076,0.0
19.077596,0.0022774317361748974,0.0
19.07998,0.00023014386879210063,0.0
19.082376,0.00018495674782615542,0.0
19.084764,0.0,0.0
19.087144,0.0,0.0
19.089548,0.0,0.0
19.091936,0.0,0.0
19.094316,0.0,0.0
19.096716,0.0,0.0
19.0991,0.0,0.0
19.101484,0.0,0.0
19.10388,0.0,0.0
19.106268,0.0,0.0
19.108648,0.0,0.0
19.111044,0.0,0.0
19.113432,0.0,0.0
19.115812,0.0,0.0
19.118208000000003,0.0,0.0
19.120596,0.0,0.0
19.122992,0.0,0.0
19.125388,0.0,0.0
19.127772,0.0,0.0
19.130156,0.0,0.0
19.132552,0.0,0.0
19.13494,0.0,0.0
19.137324,0.0,0.0
19.13972,0.0,0.0
19.142108,0.0,0.0
19.144488000000003,0.0016279789868021658,0.0
19.146888,0.005397828346881392,0.0
19.149276,0.01424281438643285,0.0
19.15166,0.02308780042598431,0.0
19.154056,0.03100162090575745,0.0
19.156444,0.03812404545261247,0.0
19.158824000000003,0.045386239626327714,0.0
19.16122,0.05371936898668148,0.0
19.163608,0.06312343353367378,0.0
19.165988,0.07452959882708293,0.0
19.168384,0.08393366337407525,0.0
19.170772,0.09641076385412294,0.0
19.173168,0.10888786433417061,0.0
19.175564,0.11936286406780144,0.0
19.177956,0.12620574936093604,0.0
19.180336,0.13165093838546854,0.0
19.182732,0.13751354043271247,0.0
19.18512,0.14816984404783895,0.0
19.187504,0.15956842590977113,0.0
19.1899,0.17445556086960085,0.0
19.192288,0.1988849118442297,0.0
19.194668,0.23457700561907702,0.0
19.197068,0.2780867192087499,0.011610264615324937
19.199452,0.3346761807478239,0.02240986430315258
19.201836,0.4016916631838243,0.03301771864414913
19.204236,0.4830901461813417,0.0431962423015584
19.20662,0.5783125512329352,0.053112395384862086
19.209004,0.6862879431519664,0.06285546915424295
19.211408,0.8053409822739817,0.07242896419055425
19.213796,0.9300244448671716,0.08208062385904173
19.216176,1.0684865035440638,0.09155543716433248
19.218572,1.2114608286772488,0.10119771064332778
19.22096,1.371751420678146,0.11053979354077575
19.223344,1.5524313154798108,0.1195881589115842
19.22574,1.755597057485146,0.12828279465397135
19.228128,1.971192816991694,0.1368573418748542
19.230508,2.198334650267919,0.14529896902061246
19.232904,2.4369300095152044,0.15348605256315143
19.235292,2.6876324168974772,0.16145171709021477
19.237672,2.942435365286939,0.16925313000728082
19.240072,3.1831820741968477,0.17706702799354243
19.24246,3.4045650895222535,0.18497331018600602
19.24484,3.6104016213008867,0.18131802602802444
19.24724,3.805253053675153,0.17846794965449775
19.249624,3.9952654585111635,0.17571206243704282
19.252008,4.1705227757333185,0.1733708198567978
19.254404,4.325065924930612,0.1713950417845222
19.256792,4.462200259461577,0.16966267351595987
19.259176,4.585695767535699,0.1681655302369668
19.261572,4.705003874377623,0.1665296317794045
19.26396,4.813187112188319,0.1650722477665401
19.266344,4.91220225574383,0.16346629230175252
19.26874,4.987103434259461,0.16233178432137257
19.271128,5.0425464755341025,0.16152451200892515
19.273508,5.077366000724629,0.16116329612122793
19.275908,5.099802730242188,0.16098027348482916
19.278296,5.107110389235684,0.1609751013564436
19.280676,5.093142905839009,0.16131876334881307
19.283072,5.065115391247044,0.16193302824487243
19.285464,5.0301504088560485,0.1627117981722896
19.287844,5.00114450687606,0.16338100205131084
19.29024,4.97972769900116,0.16387371249621002
19.292628,4.959661365566617,0.16431623480662513
19.295012,4.9367089876541215,0.16477560777466527
19.297408,4.908541703435295,0.16538125864086317
19.299796,4.882189528507781,0.1660021817810323
19.30218,4.86458993067061,0.16646079940736697
19.304576,4.847921498393217,0.1669077118962879
19.306964,4.832463770929324,0.16731342536670646
19.309348,4.815935108278791,0.16774492807903058
19.311748,4.800477380814897,0.16813994743786237
19.314132,4.788884085216977,0.1684343303730817
19.316528,4.786649667045083,0.1684539094858536
19.318924000000003,4.782041061074434,0.16850606519250397
19.321308,4.778131303238087,0.16850058325807007
19.323688,4.780367617267849,0.16831294490760612
19.326084,4.787631846148842,0.16803670316977226
19.328472,4.797921889134647,0.16772147114531075
19.330852,4.803556104321561,0.1675164831551954
19.333248,4.811052650628031,0.16726608520582875
19.335632,4.817850348800199,0.16708025986036537
19.338028,4.826742695517401,0.1668900587949543
19.34042,4.83586735966008,0.16673478267317876
19.342808,4.846854354922316,0.16653467796278928
19.345188,4.859471363878631,0.16625270362435696
19.347588,4.875301178394864,0.16587391232787746
19.349976,4.8940642592172905,0.16542990014785813
19.352356,4.9166917719056915,0.16488556839290563
19.35476,4.943091168661447,0.16420465114589045
19.357144,4.964043341685395,0.16363817331703528
19.35952,4.9848557450824815,0.16308895070050825
19.361924,5.00417790441235,0.1626127752594238
19.364312,5.0238721507945545,0.16217206970357717
19.366692,5.049805016841487,0.16160908715713135
19.369096,5.078810918821475,0.16096429293244605
19.37148,5.101810518562213,0.16048257502209018
19.37386,5.123739183116312,0.16003647972992266
19.376264,5.149811818790105,0.15947812021971075
19.378648,5.1849637926362036,0.1586765514212972
19.381028,5.213877146817574,0.15799123410863988
19.383432,5.242697953200329,0.15727221824426552
19.38582,5.265931766224413,0.15667721343484936
19.388196,5.294380485554829,0.1559481363556333
19.390592,5.318173377086355,0.15531237087072544
19.392976,5.342897434177656,0.1546644997408601
19.395372,5.364408685709044,0.15411557108323423
19.397776,5.3800534046280415,0.15370852747713026
19.40016,5.397560454666595,0.15327126440374048
19.402544,5.410643994331735,0.15296327296748785
19.404948,5.428942440303207,0.15252170686490146
19.407332,5.4431441369832285,0.1521288523042557
19.409712,5.459487704036527,0.15168394430204185
19.412116,5.472898004783631,0.15130711333417735
19.414504,5.482863182545342,0.1509835062635574
19.416884,5.488963928441079,0.15074081462325867
19.41928,5.498557019150452,0.1503957273086632
19.421664,5.511642454673461,0.14995428340501352
19.424044,5.520583919076776,0.1496118699872548
19.426448,5.52938561385323,0.14928556242747143
19.428836,5.5461957116153515,0.14878762880208182
19.431212,5.559793003817558,0.148371307713691
19.433616,5.5771149582588775,0.14788874861531964
19.436004,5.588151071207227,0.14755643922135137
19.438384,5.604774177514246,0.1471240107060698
19.440788,5.618464017515069,0.14675217979804112
19.443172,5.630850604903777,0.14637419859855927
19.445556,5.644959753785182,0.14597279570438945
19.447956,5.655064701173752,0.14565871211004658
19.450344,5.6662405837489604,0.1453180586293239
19.452724,5.677696005577891,0.14496335244128375
19.455124,5.692456780765353,0.14457176074675981
19.457508,5.705215455206398,0.14422596054452405
19.459892,5.717834360020583,0.1438894199650381
19.462288,5.730965121513966,0.1435651062608725
19.464672,5.745027048567127,0.14322203601794048
19.467052,5.755736400433513,0.1429668218281078
19.469456,5.76388457304604,0.1427950569569135
19.47184,5.778830443830738,0.14249799697960372
19.474220000000003,5.787770012376183,0.14232190860428318
19.476624,5.792565609801935,0.14223713837066082
19.479008,5.799223538347244,0.1421221749693779
19.481388000000003,5.806161006146271,0.14199044373869715
19.483784,5.8184531498784935,0.14173915573213636
19.486168,5.829022732118017,0.14151022063861088
19.488548,5.8380095224917055,0.14129040060969286
19.490944,5.847787708798312,0.14106499967355712
19.493328,5.858776599918418,0.14080839743588608
19.495728,5.873629922904498,0.14048597085361056
19.498124,5.892347677756551,0.14010147272202741
19.500508,5.907712857421828,0.13979830794311845
19.502888,5.924428511527465,0.13945699245803322
19.505284,5.9420753311928785,0.13910448126668837
19.507672,5.959861920485153,0.13874271045259365
19.510052,5.981001084964202,0.13830763516046918
19.512456,6.006423990189806,0.1377864596407784
19.514844,6.03398876578869,0.13722020906518356
19.517224,6.057968648775317,0.1366995182900576
19.519616,6.078363639149692,0.13623309035547532
19.522004000000003,6.102111204710843,0.13568847885481397
19.5244,6.124787835085357,0.13516526781833854
19.526796,6.143600033593895,0.13470225170141906
19.52918,6.159059656915659,0.13431612888810432
19.53156,6.1680936691175905,0.1340638165350735
19.533964,6.17777930762558,0.13381649826808126
19.536348,6.193843335425158,0.13348549021249878
19.538728,6.209627823971015,0.13317191786471505
19.541136,6.223410211770455,0.13289551592514331
19.54352,6.233328167703922,0.13268212250774594
19.5459,6.235517259905443,0.13259135738878983
19.548304,6.237706352106963,0.1325002219737706
19.550692,6.23603101244251,0.13247048771490846
19.553068,6.229839614606025,0.1324979363733492
19.555476,6.226209396023399,0.13245550057587424
19.55786,6.219785680761437,0.1324511878769114
19.56024,6.212011491059116,0.1324836803770285
19.562644,6.203166366170156,0.13253676292615366
19.565028,6.1973942772142525,0.1325355112222731
19.567408,6.189480317885072,0.1325758646788587
19.569804,6.1850114815412836,0.1325825907558172
19.572192,6.18347591150369,0.13254424228191167
19.574572,6.188226182959069,0.13239136309654176
19.576968,6.194326928854805,0.13220085424721262
19.579352,6.206201659564315,0.13188231725607985
19.581736,6.215422663221352,0.13159169282864625
19.584136,6.218916903892855,0.13138370355475862
19.586524,6.223901388631581,0.13113099883053517
19.588904,6.229305182250885,0.13085379623765772
19.5913,6.235779911056828,0.1305558522459188
19.593688,6.2491921076618,0.13014843665854137
19.596068,6.265537570572969,0.12969776497610425
19.598472,6.283605594976833,0.12922957686789255
19.600856,6.304467116060032,0.12872238909499498
19.603236000000003,6.322767457889373,0.12828508577801315
19.605632,6.340368951584415,0.12788965207675648
19.60802,6.353035078226842,0.12757009793445492
19.610416,6.365980744122989,0.127234404801576
19.612812,6.3778554748325,0.12692038477937553
19.6152,6.38986997516887,0.12659690121391812
19.61758,6.3961577125197095,0.12635458521885917
19.619976,6.399791722818075,0.1261402709939714
19.622364,6.403146193862721,0.12594506205367975
19.624744,6.4086425352806415,0.12571195731273754
19.627148,6.4125088630044855,0.12553211059143557
19.629536,6.419960083340581,0.12531562611470073
19.631916,6.431555274796372,0.12503088598448878
19.634312,6.439937660692246,0.12480365840965989
19.6367,6.4469695721477605,0.124611626507192
19.63908,6.4530703180434985,0.12443058528844098
19.641484,6.453956157632902,0.12433752057854094
19.643872,6.4541903709162485,0.12424003203312052
19.646252,6.457637389759511,0.12408699384066613
19.648648,6.459222077483216,0.12395518309221443
19.651036,6.456802563714087,0.12388224664505171
19.653416,6.452940027705983,0.12380723241960469
19.655812,6.455363333190849,0.12362607419127715
19.658196,6.455644768302439,0.12348258121871869
19.660592,6.454715498600531,0.12336602868381719
19.662996,6.452575524085122,0.12327634985713073
19.665384,6.453788124756489,0.12312078069855698
19.667764,6.455372812480196,0.12298618092567815
19.670160000000003,6.451882363524429,0.12293174205742134
19.672544,6.448112375314942,0.12289327224282376
19.674928,6.443690760799397,0.12284962226420584
19.677332,6.439688455164433,0.1227820219487995
19.67972,6.43447544471597,0.1227406898505831
19.682096,6.433406405387202,0.12263349370934491
19.684496000000003,6.435689941245208,0.12246379952309695
19.68688,6.439184181916714,0.12226798975279282
19.689264,6.4460309977749946,0.12200935292019885
19.691668,6.451667108819777,0.12177772246074027
19.694052,6.455440888745002,0.12156875639752762
19.696436,6.46401026609598,0.12130225460483557
19.698832000000003,6.480727816059484,0.12091660545727138
19.701216,6.502380733075601,0.12046731664591119
19.7036,6.519889678972024,0.12008427761474749
19.705996,6.54261353117478,0.11962347157260264
19.708384,6.565616922631255,0.11914537200321741
19.710764,6.593974990020925,0.11858192732008245
19.71316,6.621913748530012,0.11804591625509253
19.715548,6.650830894427123,0.11745802832889765
19.717928,6.683240385137868,0.11680310950212744
19.720328,6.7122047528632205,0.11617368726564198
19.722716,6.743171221334989,0.11552250353550234
19.725092,6.770133488313925,0.11492627611395706
19.727488,6.793510862680609,0.11435930409728944
19.729872,6.814886136300875,0.11382267512509801
19.732268,6.831837899547726,0.11336175499216068
19.734672,6.850512224287273,0.11289305760792506
19.737056000000003,6.8690467793999614,0.11243506752456582
19.739436,6.8869297082065914,0.1119716322636648
19.741828,6.902670766639945,0.11154214749016277
19.744216,6.915758098020824,0.11113558106413132
19.746596,6.925540076043169,0.11074671254923069
19.748988,6.928664125520205,0.11042561373725948
19.751376,6.932067714250964,0.11008942344843921
19.753772,6.931467101488887,0.10980323950346073
19.756164,6.934219063913587,0.10946378724645622
19.758552,6.93603986077851,0.10913573974200075
19.760932,6.937209031337372,0.10880242525392857
19.763336,6.9411716985755705,0.10844741493564755
19.765724,6.9407108554403525,0.10815876538875069
19.768104,6.940901638611194,0.10787534654119271
19.7705,6.938298925102701,0.10761632152995763
19.772888,6.9378380819674845,0.10732689531555571
19.775268,6.942033066631161,0.10699797120093699
19.777672000000003,6.945157116108199,0.10668379508526281
19.780056,6.948560704838955,0.1063535904336339
19.782436,6.9480998617037395,0.10606239805323558
19.784840000000003,6.943634817075689,0.1058164322341522
19.787228,6.937819298007281,0.1055989726558405
19.789608,6.932934944498651,0.10537330505759619
19.792004,6.9277710517363005,0.1051618653868776
19.794388,6.921628771585929,0.10500013779840259
19.796784,6.9189316144209485,0.10482040119573376
19.79918,6.9167463139351675,0.1046540293935693
19.801568,6.9153524093823036,0.10448675505356127
19.803948,6.909534994456025,0.10438659984023611
19.806352,6.897291968409915,0.10437628252225856
19.80874,6.8844898638563645,0.10439432340868694
19.811120000000003,6.867124479302541,0.10448519728283442
19.813516,6.855905166614827,0.10450085713431002
19.815904,6.847619120233309,0.10448591862535783
19.818284,6.840776096090767,0.10447671416073341
19.820688,6.836586799000699,0.10445146828747762
19.823076,6.828393300417797,0.104470184922553
19.825456000000003,6.822062132954451,0.1044737808882917
19.827856,6.820526562916858,0.10443300838047434
19.830244,6.82192425918546,0.10436294945624526
19.832624000000003,6.8291884880664515,0.10423462291823814
19.83502,6.841388084000055,0.10405601706202199
19.837404,6.853727449560521,0.10387090760720079
19.839784,6.868068915867402,0.1036655763271531
19.842188,6.881618986241366,0.10345995706277834
19.844576,6.897310926988608,0.10322719471980449
19.846956,6.9151447381091256,0.1029676128329803
19.849352,6.929905513296588,0.10274200729355643
19.85174,6.947459785163385,0.10249421057247456
19.85412,6.9725106033366515,0.10214713394804714
19.856516,6.993976528897665,0.10181917067079906
19.8589,7.012509188152485,0.10151644133925904
19.861284,7.02703764591447,0.10125948894258413
19.86368,7.039424233303178,0.1010325504563473
19.866068,7.050088259199189,0.10081336545927323
19.868464,7.056748083602367,0.10063813879682829
19.870856,7.0674121094983775,0.1004203686597858
19.873244,7.079007300954167,0.10019696920707406
19.875624,7.086738060543984,0.10001000253498356
19.878032,7.095399985693577,0.09981750266189042
19.880416,7.100337248604059,0.0996536783348867
19.882796,7.1004789140887885,0.09953128448067358
19.885196,7.101411975506436,0.09940913924582295
19.88758,7.0995515402447475,0.09930744213453371
19.88996,7.097970644236781,0.09919195995033209
19.892356,7.096529517855675,0.09907033525585188
19.894744000000003,7.0922948947952325,0.09896855202384053
19.897128,7.0971396099070985,0.09877540332530596
19.899524,7.1056164394594585,0.09852557294681347
19.901912000000003,7.111532089757961,0.09832314754899459
19.904292,7.126247538975049,0.09804604614449314
19.906688000000003,7.148179995244887,0.09769248225177961
19.909076,7.172114552261141,0.09732079645856172
19.911472,7.193535151851781,0.09695315161269148
19.913868,7.213093420322863,0.09659591565958614
19.916256,7.233210767301387,0.09621197696098652
19.918636,7.254538819093411,0.09581368263087928
19.921032,7.272421747900041,0.09542768473733562
19.92342,7.294448647826364,0.0950006363036824
19.9258,7.312750885513575,0.09459853833767418
19.928192000000003,7.333055223947204,0.0941793332271422
19.93058,7.358294929433443,0.09371959442976507
19.932972,7.383814174173403,0.09324977959297708
19.935368,7.41105598040606,0.09277576841648218
19.937756,7.443233153691327,0.09226488222806735
19.94014,7.4724770606704,0.09178003707674154
19.942536,7.501720967649473,0.09129490089311237
19.944924,7.524167176456378,0.09086699696769246
19.947304000000003,7.540327543770311,0.09050606226274094
19.949708,7.556115824031907,0.09012680118171522
19.952092,7.567388046121472,0.08977163211179902
19.954476,7.576797937091479,0.0894296361584771
19.956872,7.5871389936212665,0.08908461186520351
19.95926,7.604137978696361,0.08869990005527884
19.961640000000003,7.629145366757123,0.08825399003865725
19.964036,7.658529043363056,0.08779969897372786
19.966424,7.682558044035797,0.08740119055134113
19.968804,7.708169836574372,0.0870049383438908
19.9712,7.731499989112814,0.08663991279221953
19.973588,7.760417135009923,0.08624913530131392
19.975984,7.78984613758623,0.08587433749807818
19.97838,7.814339773109925,0.08553588091869134
19.980764,7.836691538260344,0.08521922700861428
19.983144000000003,7.854899332291067,0.08493721725819095
19.985536,7.869754551135015,0.08469494077619943
19.987920000000003,7.884190461098384,0.08446971675466959
19.990316,7.900069393300727,0.08425338852763273
19.99272,7.915668786249352,0.08404846147924838
19.995104,7.93285097106381,0.08384573736949313
19.997484,7.952267574050164,0.08365495825821109
19.999888,7.970054163342438,0.08349815913955985
20.002276,7.983417242261299,0.08338800820219727
20.004656,7.9947782204337425,0.08329320681415996
20.007060000000003,7.999061961180297,0.08325249392246918
20.009444,7.995849155620381,0.0832827800405909
20.011824,7.986630047821215,0.0833558279343505
20.014228000000003,7.978761414462408,0.0834074536190529
