Time,Force,Position
18.175204,0.0025116163882681784,0.0
18.177584,0.0026266045823336312,0.0
18.17998,0.0026266045823336312,0.0
18.182368,0.0039522975898978255,0.0
18.184748,0.008351026530517402,0.0
18.187148,0.012889525097997189,0.0
18.189536,0.019569894038754032,0.0
18.191916,0.0278330548453471,0.0
18.194312,0.039309021211855755,0.0
18.1967,0.047851721272169245,0.0
18.19908,0.05546325577270442,0.0
18.20148,0.0638661862061577,0.0
18.203868,0.06905631107969538,0.0
18.206252,0.07610876707278971,0.0
18.208644,0.08316122306588404,0.0
18.211032,0.08900297424547964,0.0
18.213428,0.09605543023857395,0.0
18.215828,0.10203695104502974,0.0
18.218212,0.10601637110506869,0.0
18.220596,0.1046906780975045,0.0
18.222992,0.10655300921706114,0.0
18.22538,0.10643802102299568,0.0
18.22776,0.10643802102299568,0.0
18.230156,0.10522731620949695,0.0
18.232544,0.10082858726887736,0.0
18.234924,0.09719647282838113,0.0
18.237324,0.09051610388762428,0.0
18.239712,0.08225294308103123,0.0
18.242092,0.07077697671452257,0.0
18.244488,0.06223427665420909,0.0
18.246876,0.05462274215367392,0.0
18.249272,0.04621981172022064,0.0
18.251668,0.041029686846682956,0.0
18.254056,0.033977230853588634,0.0
18.25644,0.026924774860494303,0.0
18.258836,0.021083023680898712,0.0
18.261224,0.014030567687804384,0.0
18.263608,0.008049046881348587,0.0
18.266004,0.004069626821309642,0.0
18.268392,0.005535089455734047,0.0
18.270772,0.0036727583361774053,0.0
18.273172,0.006860782463298239,0.0
18.275556,0.006975770657363694,0.0
18.27794,0.00686078246329824,0.0
18.280336,0.00686078246329824,0.0
18.282724,0.005954398336314677,0.0
18.285104,0.005954398336314677,0.0
18.287504,0.005954398336314677,0.0
18.289892,0.005954398336314677,0.0
18.292272,0.005954398336314677,0.0
18.294672,0.005954398336314677,0.0
18.297056,0.005954398336314677,0.0
18.29944,0.005954398336314677,0.0
18.301836,0.005954398336314677,0.0
18.304224,0.005954398336314677,0.0
18.306608,0.005954398336314677,0.0
18.309004,0.005954398336314678,0.0
18.311392,0.005954398336314678,0.0
18.313772,0.005954398336314678,0.0
18.316176,0.004488935701890274,0.0
18.31856,0.0033030123211862886,0.0
18.32094,0.00011498819406545341,0.0
18.323336,0.0,0.0
18.325724,0.00039452744778587363,0.0
18.32812,0.0029309252688488087,0.0
18.330524,0.006258719022829854,0.0
18.332908,0.01238000945614586,0.0
18.335288,0.018361530262601657,0.0
18.337684,0.026345151815474303,0.0
18.340068,0.03647064374162401,0.0
18.342448,0.04552520048113519,0.0
18.34484,0.05457975722064637,0.0
18.347228,0.06456547951993587,0.0
18.34962,0.07054700032639166,0.0
18.352016,0.07638875150598726,0.0
18.3544,0.08381329455141905,0.0
18.35678,0.09202923352976897,0.0
18.359184,0.1011763380678972,0.0
18.361572,0.11046321223288566,0.0
18.363952,0.11853938158437535,0.0
18.366356,0.12568438537608673,0.0
18.36874,0.13390032435443663,0.0
18.37112,0.14225603295964678,0.0
18.373516,0.1484946526243746,0.0
18.3759,0.15245163228896516,0.0
18.378292,0.1546860504608593,0.0
18.380696,0.15426674158027864,0.0
18.383084,0.15519790714005702,0.0
18.385464,0.1559893030729751,0.0
18.387868,0.15449905900575597,0.0
18.390256,0.15594208124473197,0.0
18.392632,0.15873557792406692,0.0
18.395036,0.1585958082972067,0.0
18.397424,0.16138930497654166,0.0
18.399804,0.16339140572295854,0.0
18.4022,0.16395048423039937,0.0
18.404588,0.16371816680492213,0.0
18.406968,0.16055258307324966,0.0
18.409364,0.1571074600878568,0.0
18.411748,0.15329025005012648,0.0
18.414128,0.15026443594531422,0.0
18.416524,0.14616768665386345,0.0
18.418908,0.13781197804865328,0.0
18.421304,0.13408731580954,0.0
18.4237,0.12957125763750865,0.0
18.426084,0.12812823539853266,0.0
18.428464,0.1266852131595566,0.0
18.43086,0.12603358685349872,0.0
18.433248,0.12193683756204794,0.0
18.435628,0.11504659159126224,0.0
18.438032,0.10657355375464031,0.0
18.44042,0.09472550033579415,0.0
18.4428,0.08487954766336488,0.0
18.445192,0.07826884094629959,0.0
18.44758,0.0764537316549861,0.0
18.449976,0.0744988527368124,0.0
18.452372,0.07268374344549888,0.0
18.45476,0.07193956934082393,0.0
18.45714,0.07119539523614896,0.0
18.459536,0.07189424337045001,0.0
18.461924,0.0730124003853317,0.0
18.4643,0.07305962221357484,0.0
18.466704,0.08123023522155086,0.0
18.469092,0.0804860611168759,0.0
18.471472,0.07850874180325382,0.0
18.473868,0.07438955211635466,0.0
18.476252,0.0701305928025953,0.0
18.478648,0.06386953274241906,0.0
18.481052,0.059191264548079076,0.0
18.483436,0.057446262659934244,0.0
18.485816,0.055421721518069,0.0
18.488212,0.055421721518069005,0.0
18.4906,0.055421721518069005,0.0
18.49298,0.05325741074934355,0.0
18.495376,0.047228668114644594,0.0
18.497764,0.04119992547994565,0.0
18.50014,0.035031413218386494,0.0
18.502548,0.029794066516605655,0.0
18.504932,0.024696489441685024,0.0
18.507316,0.019738681993624607,0.0
18.50972,0.014501335291843772,0.0
18.512104,0.010334923776701465,0.0
18.514488,0.0021643107687254557,0.0
18.51688,0.0,0.0
18.519264,0.0,0.0
18.521644,0.0,0.0
18.524048,0.0,0.0
18.526436,0.0,0.0
18.528816,0.0,0.0
18.53122,0.0,0.0
18.533604,0.0,0.0
18.535984,0.0,0.0
18.538388,0.0,0.0
18.540776,0.0,0.0
18.543156,0.0,0.0
18.54556,0.0,0.0
18.547948,0.0,0.0
18.550328,0.0,0.0
18.552732,0.0,0.0
18.55512,0.0,0.0
18.5575,0.0,0.0
18.559896,0.0,0.0
18.56228,0.0,0.0
18.56466,0.0,0.0
18.567064,0.0,0.0
18.569452,0.0,0.0
18.571828,0.0,0.0
18.574228,0.0,0.0
18.576612,0.0,0.0
18.578992,0.0,0.0
18.581396,0.0,0.0
18.583784,0.0,0.0
18.586164,0.0,0.0
18.588568,0.0,0.0
18.590956,0.002117088940482304,0.0
18.593332,0.0053051130676031386,0.0
18.59574,0.007561971634945652,0.0
18.598124,0.008887664642509846,0.0
18.600504,0.01007358802321383,0.0
18.6029,0.010328345844139495,0.0
18.605288,0.010328345844139495,0.0
18.607668,0.010328345844139495,0.0
18.610064,0.010328345844139495,0.0
18.612452,0.010328345844139495,0.0
18.614836,0.010328345844139495,0.0
18.617232,0.010328345844139495,0.0
18.619616,0.010328345844139495,0.0
18.621996,0.010328345844139495,0.0
18.6244,0.010328345844139495,0.0
18.626788,0.010328345844139495,0.0
18.629168,0.010328345844139497,0.0
18.631564,0.010328345844139497,0.0
18.633948,0.010328345844139499,0.0
18.636332,0.010328345844139499,0.0
18.638728,0.008211256903657193,0.0
18.641112,0.005023232776536357,0.0
18.643508,0.0027663742091938418,0.0
18.645904,0.0014406812016296475,0.0
18.648292,0.0002547578209256634,0.0
18.650672,0.0002547578209256634,0.0
18.653068,0.0034427819480464983,0.0
18.655456,0.009052215702164815,0.0
18.657836,0.017734685389338513,0.0
18.660228,0.029629960636427803,0.0
18.662616,0.04073383995059898,0.0
18.665012,0.05356028075746659,0.0
18.667408,0.06438462081791736,0.0
18.669792,0.07721106162478497,0.0
18.672176,0.08468282649845991,0.0
18.674572,0.08610106730464118,0.0
18.676956,0.09142906594716982,0.0
18.679352,0.09875726947824609,0.0
18.681748,0.1160468590552942,0.0
18.684136,0.14017757691701566,0.0
18.686516,0.1741752371682227,0.0
18.68892,0.22106565391372748,0.009683761725290452
18.691308,0.2856444245792819,0.018637917499231643
18.693688,0.36674806617963035,0.027138295762156726
18.696084,0.45892935498296306,0.03565920393670348
18.698472,0.5580691013023809,0.04445548245365727
18.700852,0.6609297181451737,0.05360194579133078
18.703248,0.775984243347963,0.06264243502378739
18.705636,0.9032798987389923,0.07149098261044948
18.708016,1.0377887694670322,0.08032690166870884
18.710412,1.186448323331112,0.08902107948267846
18.7128,1.3433920277188411,0.09776551498634498
18.715184,1.5184433949072005,0.10637790164203687
18.71758,1.7055961226569396,0.1149506224450795
18.719968,1.9141165405954677,0.1233683795941669
18.722348,2.1454495668196296,0.13152831995981962
18.724752,2.380040724574082,0.13970353531665164
18.727136,2.623012372366538,0.14779430286127976
18.729516,2.864960306800599,0.15581495104596235
18.73192,3.1074692155999704,0.1637331692556306
18.734304,3.339599325330659,0.17163896446846955
18.736684,3.5570215692757357,0.16984469151384976
18.739088,3.750097530755454,0.168929858695375
18.741476,3.9260895427929388,0.1685128703860103
18.743856,4.095380196172609,0.167995829565646
18.746248,4.262393001267882,0.16708422300252587
18.748636,4.425452618414302,0.16572179418586663
18.751032,4.570731333842055,0.16449870856716017
18.753432,4.698554012775235,0.16352706142790577
18.75582,4.822049520849358,0.16246695692295154
18.7582,4.937493195825309,0.16145973520543064
18.760604,5.043069928411772,0.16039214815414685
18.762992,5.130027141518409,0.15949026760090548
18.765372,5.201949727757469,0.15864624614869513
18.767768,5.258510926046992,0.1579594417374996
18.770152,5.3005474582902705,0.15751684209500744
18.772532,5.3366268059804085,0.15702082286875876
18.774936,5.357949170198824,0.15667929012835963
18.777324,5.365026407624713,0.15649917250641732
18.779704,5.362559672027341,0.15648108540146194
18.7821,5.365120851281199,0.15639055052139952
18.784488,5.369776679080091,0.15629549405799004
18.786864,5.381137657252535,0.15599647279545323
18.789268,5.389472821320165,0.15571783642843068
18.791656,5.392220992029128,0.15555896820283951
18.794036,5.3906854219915346,0.1555213280001377
18.796432,5.38831123419278,0.15554628056549633
18.79882,5.391524039752695,0.15545881079212462
18.8012,5.395807780499249,0.1553407678286662
18.803604,5.391850800834659,0.1553823568891112
18.805992,5.380584266318701,0.1555616562049108
18.808372,5.369457501429605,0.1557298068811194
18.810768,5.360332837286926,0.15585162081193568
18.813152,5.346552345345354,0.15607286539814852
18.815536,5.331049291911086,0.1563229384420357
18.81794,5.317036482544037,0.15650688157799614
18.820324,5.299671097990212,0.15679034958604368
18.822704,5.289894807541475,0.15691208506404536
18.825108,5.286636676011185,0.1569017964789848
18.827496,5.285939723734753,0.15679999018415605
18.829876,5.282589044405848,0.1567451517238694
18.832272,5.280541617689056,0.15669465791777934
18.834656,5.281380235450217,0.15663261190170957
18.837036,5.283941414704075,0.15654280721966995
18.839432,5.2838488669054575,0.15649828640009167
18.84182,5.286969124666757,0.15636620355345798
18.844216,5.291020547987833,0.1562173147987756
18.846612,5.2919989353758545,0.15614504023830486
18.848996,5.296888976458093,0.15593669569329557
18.851376,5.304991823100246,0.15564221166963402
18.85378,5.313886065675319,0.15533660000611169
18.856168,5.32222122974295,0.15507253741702595
18.858548,5.331999416049555,0.15480350725163675
18.860944,5.350577401274748,0.154334718695532
18.863332,5.375161688739192,0.15373125751123876
18.865712,5.393739673964385,0.15327015830614574
18.868116,5.416321860682411,0.1527142875940156
18.870504,5.437693342586939,0.15220748663235767
18.872884,5.45585201893155,0.15178403808117868
18.875288,5.4768041919554955,0.15131437181162508
18.877676,5.4956144946061665,0.15090184509990692
18.88006,5.513912940577638,0.15048005021392455
18.882456,5.527276019496498,0.1501659638576375
18.884844,5.54571423509483,0.1497380736401019
18.887224,5.573231788865469,0.1491092012322159
18.88962,5.593811874837079,0.14863085782350247
18.892008,5.609456593756076,0.14825781817877445
18.894388,5.626125026033469,0.14790938052661554
18.896784,5.638602265362924,0.1477128044704731
18.899172,5.648146238386184,0.14757636705333027
18.901552,5.66104278659622,0.1473505053965401
18.903956,5.676220974806394,0.14706289690815255
18.90634,5.691678702270287,0.14675827615950346
18.908724,5.706065494547542,0.14648598134057983
18.91112,5.711932027159933,0.1463701548659772
18.913504,5.719708112720124,0.14616953780349595
18.915884,5.727763737534035,0.1459523323088327
18.918284,5.733817261601529,0.14577775092009737
18.920668,5.750021059027967,0.14539491491765083
18.923052,5.76301205089449,0.14509021380137446
18.925448,5.775770725335535,0.14475359925115117
18.927832,5.790671270149858,0.14437292067708363
18.930228,5.814651153136484,0.14381893156049302
18.932624,5.833416129816781,0.14337769390463564
18.935012,5.843101768324772,0.14311573254893592
18.937392,5.8553485860866195,0.14277606511770125
18.939788,5.872018914221879,0.14233184864201895
18.942176,5.889388090491442,0.14184310038192238
18.944556,5.908387280455085,0.14129214965119694
18.946952,5.931530441538422,0.1406558972065683
18.94934,5.948807070009367,0.14012484309999898
18.95172,5.9630106625472585,0.1396576386799843
18.95412,5.974653075831292,0.13926538653941392
18.956504,5.984013849115188,0.13893182446741725
18.958904,5.996959515011336,0.13854538483455417
18.9613,6.010137498332962,0.1381900055116981
18.963688,6.022756403147147,0.13787462583864304
18.966064,6.038029035013806,0.1375269531748443
18.96846,6.042080458334883,0.13740376890266373
18.970848,6.04613188165596,0.13728058463048312
18.973228,6.0496242264695965,0.1371929334094661
18.975624,6.048693060909819,0.1372070738798977
18.978008,6.037332082737374,0.13743178312185608
18.980404,6.029835536430905,0.13759184458418566
18.982796,6.028205522736825,0.1376504809415534
18.985184,6.0269475960950825,0.13773077908273854
18.987564,6.0251305909459,0.13784577590033933
18.989968,6.026246852102913,0.13790994480017588
18.992352,6.029085674752623,0.1379557178886403
18.994732,6.027780526282638,0.13808138540952605
18.997136,6.033133306357962,0.13810433116766838
18.999524,6.04141935273948,0.13807829536914196
19.0019,6.05627077986769,0.13791327255570715
19.004304,6.071401746249621,0.13773098564893105
19.006692,6.089745518191467,0.13748617959395315
19.009072,6.110370930133449,0.1371914997388336
19.011476,6.1303447157693745,0.13689467382077952
19.013864,6.146733608793046,0.13664226696631196
19.016244,6.167406242563272,0.13630256028169463
19.018648,6.186356314840804,0.1359788549779743
19.021032,6.206377322304972,0.13563229343659627
19.023412,6.228400430515556,0.13524982261396298
19.025808,6.25284494835314,0.13480020625147454
19.028196,6.2769173791383865,0.13433479634588946
19.030576,6.298987709177215,0.133906988030944
19.03298,6.3221289744026805,0.1334582713468
19.035364,6.341545577389035,0.1330611111518297
19.037748,6.355095647762999,0.13276146162656613
19.040144,6.367714552577183,0.13247728985874632
19.042532,6.384058119630484,0.1321418651973932
19.044912,6.401332852243559,0.1318002278581944
19.047312,6.4190268937372155,0.13143804052599756
19.0497,6.430295324111042,0.1312020297171177
19.05208,6.4427744592983665,0.1309389671841249
19.054476,6.45017845780622,0.13076144297696113
19.056864,6.455440585940795,0.13062490279126832
19.059244,6.458980152582675,0.13050406936242076
19.061648,6.464801359224691,0.1303355707381831
19.064036,6.4683409258665705,0.1302150183460633
19.066416,6.476676089934201,0.1300282437136449
19.06882,6.488224059561748,0.12978436144397712
19.071208,6.499399942136956,0.1295210009000175
19.073584,6.510715594339026,0.12924867401802445
19.075984,6.519470067287238,0.12904001600644116
19.078372,6.530506180235586,0.1287859651228745
19.080752,6.542892767624294,0.1284990925991809
19.083156,6.5598426350132755,0.128120639647936
19.08554,6.578794603148674,0.1277102562385547
19.087924,6.594953074604739,0.12733355364503496
19.090328,6.609668523821828,0.1269580207355922
19.092712,6.617865814120468,0.12666174556747997
19.095096,6.62378146441897,0.12641260630329776
19.097492,6.630535732478634,0.12611569680156387
19.09988,6.633657886097803,0.12589871230802913
19.10226,6.640784241209803,0.12562193083316134
19.104664,6.647119200388887,0.1253479945859607
19.107052,6.65373369882169,0.12505783881441918
19.109432,6.658206326881218,0.12480605518821893
19.111828,6.664029429381103,0.12451925638345375
19.114216,6.664125768895458,0.1243067702126462
19.1166,6.66021790691698,0.1241542795730938
19.118996,6.654307944192086,0.12403101815732374
19.121384,6.651610787027106,0.12385183620539354
19.123764,6.654408075422181,0.12357355024238885
19.126164,6.655994659003755,0.12332283785865088
19.128552,6.655579141838913,0.12310164761100299
19.130932,6.651531510233576,0.12295763387575699
19.133328,6.646412943441598,0.12283142571040594
19.135716,6.643016938142318,0.1226919419987017
19.138096,6.641343494335732,0.12253984233630522
19.1405,6.642463547208484,0.12235631073852325
19.142884,6.642931973775177,0.12216758255051761
19.145264,6.643492948140487,0.12201439421277782
19.14766,6.650759072879349,0.12173924242889836
19.150048,6.654020996125377,0.1215204541469381
19.152428,6.660355955304461,0.12125676019381751
19.154824,6.665200670416326,0.121032677057555
19.157212,6.671767947020886,0.12079599075137148
19.159608,6.678335223625446,0.12055980146028118
19.162012,6.688627162469119,0.12028238015404785
19.164396,6.697848166126155,0.12002140941371522
19.166776,6.707441256835528,0.11977947118966181
19.169184,6.713821541984984,0.11959255663661215
19.171568,6.709911784148637,0.11956148767730776
19.173948,6.705210630379371,0.11953276625271785
19.176356,6.698367606236828,0.11953979897394082
19.17874,6.691804121348006,0.11953160946410804
19.18112,6.6876620460861815,0.11947187069090875
19.183516,6.6868725460111325,0.11935122673160052
19.185904,6.678214412577277,0.11933438656944714
19.188284,6.667833717650725,0.11933010806039376
19.19068,6.659315353843729,0.1193050892049722
19.193064,6.656710744477366,0.11916083849258786
19.195444,6.645957962498476,0.1191335356384009
19.19784,6.638557755706362,0.11904591000116484
19.200228,6.627153347421414,0.11901236574167717
19.202612,6.619241283950101,0.11891121374354008
19.205008,6.608023867120257,0.11882608754103244
19.207396,6.596806450290412,0.11874051887778911
19.20978,6.584797637527651,0.11865666053181874
19.212176,6.573999529578385,0.11854776607437029
19.214564,6.567904471256256,0.11834693156393955
19.216944,6.563811513680545,0.1181192484002439
19.219344,6.570939764650415,0.11773274736538465
19.221732,6.57634545412759,0.11735736335070872
19.224112,6.58510371879154,0.11692287186111211
19.226508,6.595072688268989,0.1164636776646158
19.2289,6.602760017746301,0.11604723282884802
19.23128,6.605372210544141,0.11570192899810504
19.233676,6.617203511141147,0.11522524257480575
19.23606,6.6321078476712065,0.11470582033454166
19.238444,6.647151953828128,0.11418212674366915
19.24084,6.651906016999245,0.11380469904513062
19.243224,6.664808252782889,0.11331758776563991
19.245624,6.677850258193393,0.11282694218889784
19.248016,6.694896465096731,0.11228673388408057
19.250404,6.711663132746349,0.1117650290423413
19.252784,6.733085628194858,0.11120029476036626
19.255184,6.755579058830006,0.11062231413210208
19.257572,6.778072489465153,0.11004578830500857
19.259952,6.803638956033355,0.1094321905083091
19.262348,6.822779811481727,0.10891505550971439
19.264736,6.84084973174346,0.10841550992156809
19.267116,6.8537047456988605,0.107992193783318
19.269512,6.868142551520097,0.10756625950007892
19.2719,6.883231983647394,0.10715020791673492
19.274296,6.898833272453887,0.10674898740143006
19.276692,6.916436662006796,0.10632534079725979
19.27908,6.934831447492623,0.10589871615964187
19.281464,6.9497338881648165,0.10553523146890778
19.28386,6.9640772503295665,0.10520227353416485
19.286248,6.973857332494043,0.1049422170628022
19.288632,6.98801370320369,0.10465377129070404
19.291028,6.994673527606868,0.10447214723198311
19.293416,6.99742169831583,0.10437137713229669
19.2958,6.995886128278237,0.10433092203768933
19.298192,6.99486241491984,0.10430402102284825
19.30058,6.9872733208147535,0.10437433515899637
19.30296,6.978473521896169,0.10446613748548762
19.305352,6.968463018164083,0.10457999702187411
19.30774,6.955611795924423,0.10475835690559337
19.310136,6.948906645550871,0.10486149862042199
19.312532,6.940851020736959,0.10499400761566427
19.31492,6.933447022229107,0.10513263550268581
19.317296,6.928696750773728,0.1052543089230529
19.319704,6.921664839318213,0.10541182387737162
19.322088,6.914772697489558,0.10556166911578604
19.324468,6.904527980474128,0.1057626612649836
19.326864,6.8982874649515304,0.10591843822257158
19.329252,6.891627640548352,0.10609545349961891
19.331632,6.884967816145174,0.10627185474829588
19.334028,6.885524998794746,0.10636054757000935
19.336416,6.8894347566310925,0.10639880281141804
19.338796,6.900281982266469,0.10636403167230978
19.341188,6.915133409394679,0.10628491106683528
19.343576,6.933057872455944,0.10616904153324794
19.345972,6.947537212531817,0.10606942692369083
