Time,Force,Position
20.504792,0.0,0.0
20.507188,0.00039299818169685676,0.0
20.509576,0.0003929981816968567,0.0
20.511956,0.001158083415731193,0.0
20.51436,0.001158083415731193,0.0
20.516748,0.001158083415731193,0.0
20.519124,0.0011580834157311932,0.0
20.521528,0.0011580834157311932,0.0
20.523916,0.0011580834157311932,0.0
20.526296,0.0011580834157311932,0.0
20.528692,0.0011580834157311932,0.0
20.53108,0.0011580834157311932,0.0
20.53346,0.0011580834157311932,0.0
20.53586,0.0011580834157311932,0.0
20.538244,0.0011580834157311932,0.0
20.540624,0.0019231686497655296,0.0
20.543024,0.0019231686497655294,0.0
20.545412,0.004550585003356507,0.0
20.547792,0.006526375050889585,0.0
20.550192,0.012366596964396154,0.0
20.55258,0.017555192571844826,0.0
20.55496,0.018346588504762933,0.0
20.557356,0.024606119298850135,0.0
20.559744,0.03159080892612216,0.0
20.562124,0.03826964860078999,0.0
20.564524,0.04601942346209635,0.0
20.566912,0.055771299069819556,0.0
20.569292,0.06459200911776444,0.0
20.571688,0.0755545895389864,0.0
20.574072,0.08679670921392878,0.0
20.576452,0.09510556258267598,0.0
20.578848,0.10234348076478467,0.0
20.581236,0.10636859338697774,0.0
20.583632,0.11160441082266956,0.0
20.586028,0.11497789713880474,0.0
20.588416,0.1183776941538237,0.0
20.590796,0.12361351158951552,0.0
20.593192,0.12501120785811762,0.0
20.59558,0.12892286155233426,0.0
20.597964,0.1280389178207991,0.0
20.60036,0.1296689315148785,0.0
20.602744,0.13758478670192878,0.0
20.605124,0.13828363483622985,0.0
20.60752,0.13735246927645153,0.0
20.609908,0.13828363483622985,0.0
20.612288,0.13721269964959135,0.0
20.614688,0.13092685815662036,0.0
20.617072,0.1252926429697073,0.0
20.619468,0.1156542262899605,0.0
20.621868,0.1057362703564933,0.0
20.624252,0.10075368147563812,0.0
20.626636,0.0971215670351419,0.0
20.629032,0.10070645964739496,0.0
20.63142,0.10415158263278781,0.0
20.633804,0.1093192671108771,0.0
20.636208,0.11183322453649164,0.0
20.638592,0.11406764270838576,0.0
20.640972,0.11378810345466535,0.0
20.643376,0.10950436270811123,0.0
20.645764,0.10615178752133543,0.0
20.648144,0.10000571565522468,0.0
20.650548,0.09090546635355937,0.0
20.652936,0.08394708742517111,0.0
20.655316,0.07712847812364308,0.0
20.657712,0.06951847288919692,0.0
20.660096,0.0628396332145291,0.0
20.662476,0.05937359909977685,0.0
20.664876,0.05618710423874504,0.0
20.66726,0.05730526125362672,0.0
20.669644,0.05721271345500966,0.0
20.67204,0.054978295283115534,0.0
20.674424,0.05137249154150309,0.0
20.676804,0.043762486307056946,0.0
20.6792,0.03508154588597226,0.0
20.681584,0.026540375091747795,0.0
20.68398,0.019861535417079964,0.0
20.686384,0.012391299809494018,0.0
20.688772,0.00864572644102136,0.0
20.691152,0.0070420234458257605,0.0
20.693556,0.005438320450630163,0.0
20.695944,0.004765783015212886,0.0
20.69832,0.004765783015212886,0.0
20.700724,0.004765783015212886,0.0
20.703112,0.004765783015212886,0.0
20.705492,0.004765783015212886,0.0
20.707888,0.0047657830152128865,0.0
20.710276,0.0047657830152128865,0.0
20.712656,0.0047657830152128865,0.0
20.715052,0.002323462258856027,0.0
20.717436,0.0010918463159979082,0.0
20.719816,0.0,0.0
20.722216,0.0,0.0
20.7246,0.0,0.0
20.72698,0.0,0.0
20.729376,0.0,0.0
20.731764,0.0,0.0
20.73416,0.0,0.0
20.736556,0.0,0.0
20.738944,0.0,0.0
20.741328,0.0,0.0
20.743724,0.0,0.0
20.746112,0.0,0.0
20.748492,0.0,0.0
20.750896,0.0,0.0
20.753284,0.0,0.0
20.755664,0.0,0.0
20.758064,0.0,0.0
20.760448,0.0,0.0
20.762828,0.00030045038307979793,0.0
20.765224,0.0015320663259379163,0.0
20.767612,0.002112055962738134,0.0
20.769996,0.002112055962738134,0.0
20.772392,0.0021120559627381343,0.0
20.77478,0.0021120559627381343,0.0
20.777164,0.0021120559627381343,0.0
20.77956,0.0021120559627381343,0.0
20.781944,0.0026920455995383522,0.0
20.784328,0.0026920455995383522,0.0
20.786732,0.005134366355895211,0.0
20.78912,0.00957878785866892,0.0
20.7915,0.01495437492122095,0.0
20.7939,0.02019019235691277,0.0
20.796284,0.02463461385968648,0.0
20.798664,0.02600599942940481,0.0
20.80106,0.02600599942940481,0.0
20.803448,0.02600599942940481,0.0
20.805828,0.02600599942940481,0.0
20.808224,0.026398997611101666,0.0
20.810612,0.02609854722802187,0.0
20.812996,0.024866931285163752,0.0
20.815392,0.02467993983006039,0.0
20.81778,0.026004103571535566,0.0
20.820176,0.02825943287278906,0.0
20.822572,0.028512661427625707,0.0
20.82496,0.029557285915380472,0.0
20.82734,0.030741680029995437,0.0
20.829736,0.03334818525422704,0.0
20.832124,0.03667444974211907,0.0
20.834504,0.03862932866029277,0.0
20.8369,0.042586308324883325,0.0
20.839284,0.04468095686991723,0.0
20.841664,0.04784654060158967,0.0
20.844064,0.050592815452681475,0.0
20.846452,0.05841422698324551,0.0
20.848848,0.06867795927016643,0.0
20.851244,0.07614819487775237,0.0
20.853628,0.08576030085861537,0.0
20.856012,0.09111497679180802,0.0
20.858408,0.09886475165311438,0.0
20.860792,0.10461242576800389,0.0
20.863176,0.10903593614141822,0.0
20.865572,0.11252828095505424,0.0
20.86796,0.11616039539555047,0.0
20.870344,0.12365694170202018,0.0
20.87274,0.13078140095615243,0.0
20.875128,0.13576398983700758,0.0
20.877504,0.13674237722502908,0.0
20.879912,0.1407938005461059,0.0
20.882296,0.1388389216279322,0.0
20.88468,0.13043752046056795,0.0
20.887072,0.12296728485298203,0.0
20.88946,0.11456588368561776,0.0
20.891844,0.10737518733175223,0.0
20.894248,0.09862261024140986,0.0
20.896632,0.0897302635242073,0.0
20.899016,0.08456257904611801,0.0
20.901412,0.07618208900811313,0.0
20.9038,0.07231765714213963,0.0
20.90618,0.06456788228083325,0.0
20.90858,0.06042391116113935,0.0
20.910968,0.05614017041458522,0.0
20.913348,0.0558606311608648,0.0
20.915748,0.05236828634722879,0.0
20.918136,0.04461851148592243,0.0
20.920516,0.03644942774403545,0.0
20.922912,0.030282444748565302,0.0
20.9253,0.02611756249951201,0.0
20.927684,0.018739874690543126,0.0
20.93008,0.016297553934186266,0.0
20.932468,0.016297553934186266,0.0
20.934864,0.016297553934186266,0.0
20.93726,0.016297553934186266,0.0
20.939648,0.016297553934186266,0.0
20.942032,0.015857333924246257,0.0
20.944428,0.014485948354527928,0.0
20.946816,0.012183397225031279,0.0
20.9492,0.010951781282173162,0.0
20.951596,0.009068539033257144,0.0
20.953988,0.009068539033257144,0.0
20.956368,0.007464836038061546,0.0
20.958768,0.006932068229504478,0.0
20.961152,0.0023950989281137083,0.0
20.963532,0.0,0.0
20.965936,0.0,0.0
20.96832,0.00020221501085501144,0.0
20.9707,0.013112090918773692,0.0
20.973104,0.04035774555996617,0.0
20.975492,0.08841011602463754,0.009845835456838094
20.977872,0.16290341749970086,0.01825535827934504
20.980276,0.25964835289508836,0.02600052405845807
20.982664,0.3681225617995181,0.0338458232202909
20.985044,0.48692834794438783,0.04200878195689197
20.987448,0.6250978276737604,0.05007386310310858
20.989836,0.7843535624803324,0.05801746445506992
20.992216,0.9688867453120407,0.06563339534257726
20.994612,1.1644975753467333,0.07330908810372275
20.997,1.373839779636885,0.08098032168372232
20.99938,1.5993800937798672,0.08867157432096656
21.001784,1.845494806320851,0.09630234301258989
21.004172,2.111951599834359,0.10384812488484506
21.006552,2.3942816379766034,0.11134338725211514
21.008952,2.6887602585084704,0.11885740863527211
21.011336,2.998692814788493,0.12635374158912263
21.01372,3.3224965149508345,0.13384628489177636
21.016116,3.659504509133686,0.1412817532463451
21.0185,3.98892530506932,0.1487015784963378
21.02088,4.302195212980367,0.15610615602116976
21.023276,4.590329338351006,0.15367465063271452
21.025668,4.847226935285503,0.15275821664870673
21.028048,5.077681705351737,0.15263386931233386
21.030444,5.30106302970782,0.15233611480972467
21.032832,5.517512573838483,0.15160141876782457
21.035212,5.711340292854355,0.1509524023114232
21.037608,5.879193611568658,0.15046861064920697
21.039996,6.016275036697772,0.15043709461826124
21.04238,6.14702719022141,0.15030793395697595
21.044776,6.263628660609008,0.15020866768028174
21.047164,6.357793401479048,0.15017755843922173
21.049544,6.424725815405777,0.15032537704088086
21.05194,6.469406595412183,0.15063718796161987
21.054328,6.497887369707889,0.15106444175402184
21.056708,6.517804454226224,0.1514164448614923
21.059104,6.520033184824511,0.1517990855451379
21.061492,6.503642395942971,0.15223028369787237
21.063888,6.468118335044535,0.1528302231953436
21.066284,6.430267308175588,0.1533940849658022
21.068672,6.399026988023706,0.15387997540484144
21.071052,6.366156654177744,0.1544370659304888
21.073448,6.331051902159888,0.1550269427015357
21.075836,6.304933940515721,0.15539175269307853
21.07822,6.27890852667017,0.15578318101676636
21.080616,6.249575863608218,0.15633230126885717
21.083004,6.224292728009474,0.15688588730262076
21.085384,6.200964471328904,0.1574562551000583
21.08778,6.182851120954666,0.15792067386530978
21.090168,6.1631549787145925,0.15839130417870328
21.092548,6.1463921027807125,0.15880403139345883
21.094944,6.141362292071614,0.15899206464884402
21.097332,6.146110667669124,0.15895025935872387
21.099728,6.150254638788818,0.158859052538785
21.102124,6.158450033229588,0.15864024257398662
21.104512,6.170649629163192,0.15834837861781345
21.106892,6.189227614388386,0.1579601726603252
21.109296,6.214695845584362,0.15748215067159732
21.111684,6.248963875698926,0.15683412269553476
21.114064,6.280810496186493,0.15625660401576616
21.116468,6.307162671114004,0.1558131810089355
21.118856,6.345992085370973,0.15519261780211221
21.12124,6.393853615972004,0.15442575734993094
21.123636,6.432263721348395,0.1538236808113439
21.12602,6.463411493701661,0.15329332243628255
21.1284,6.501683725309058,0.15258980288722573
21.130804,6.541446200983674,0.1518442099083027
21.133192,6.584980560725647,0.15099112862573572
21.135576,6.629772847109362,0.15006488856992245
21.137972,6.670236066776148,0.14915671538960398
21.14036,6.712608839390735,0.14819266428718542
21.14274,6.748276461631771,0.147392773559873
21.145136,6.7828259268579245,0.14667205303710534
21.147524,6.819097953576777,0.1459263104796924
21.149904,6.849922756563817,0.14526016678837367
21.1523,6.87315846544577,0.14472356875747439
21.154688,6.891319037648252,0.14428274579995323
21.157068,6.90561517798476,0.1439041648504455
21.159464,6.9138124682834015,0.14359528010412612
21.161852,6.919682792611533,0.14325850810192856
21.164232,6.925879878021625,0.14286202709519252
21.166628,6.923184616714516,0.14257621089465414
21.16902,6.921327973168567,0.14224461671962563
21.1714,6.9257571711155865,0.1417941239007366
21.173796,6.932468009062745,0.14129189936197573
21.176184,6.930239278464459,0.14094115872131796
21.178568,6.9234472678659,0.14068866935033325
21.180964,6.917399431372012,0.14047390779589036
21.183352,6.910512977116967,0.14030579365898882
21.185732,6.905069545100895,0.14013559269244577
21.188132,6.895202602711409,0.14005373754319564
21.190516,6.889479631441619,0.13989966011911187
21.1929,6.884827595358465,0.13972631165355828
21.195296,6.881665803342529,0.13951013252169012
21.197684,6.880134025020674,0.1392429961134588
21.20008,6.87301525334015,0.13904713943639652
21.202476,6.869621143898737,0.13880297251796228
21.204864,6.871022631883077,0.13849102678073114
21.207248,6.877871343599226,0.1381143741829529
21.209644,6.885092142367712,0.13775461692080557
21.212032,6.893476424121455,0.13740978496535977
21.214412,6.908611182219123,0.13700883865770494
21.216816,6.921556848115271,0.1366921043038858
21.2192,6.93408320513084,0.13640085129702012
21.22158,6.94991491550494,0.13608862334612024
21.22398,6.96532731699846,0.13579624936615461
21.226364,6.987165329611811,0.135389951636898
21.228744,7.011052664799822,0.13491785339371284
21.231144,7.03135510737558,0.13448128541179385
21.233532,7.051005923645282,0.1340420252996219
21.235912,7.070796509541843,0.13359552505787264
21.238308,7.087653829132208,0.13319360458234225
21.240696,7.1006467168566,0.1328464962834433
21.243076,7.115222396446829,0.1324949861039029
21.245476,7.129890623835674,0.1321775141128129
21.247864,7.151868406075885,0.13177521405748718
21.250244,7.172915022756317,0.1313883092341663
21.25264,7.192239077944055,0.13102056358755385
21.255028,7.207279392385237,0.1307264653378882
21.257412,7.221900397945839,0.13045223710828552
21.259808,7.2349386116406045,0.13018508534946427
21.262196,7.241086579364583,0.12997639744731027
21.26458,7.243277567423973,0.1297843937587712
21.266976,7.242954598057747,0.1296103263130963
21.269364,7.235554391265633,0.1295417910373003
21.271748,7.231227220406576,0.12942578270639893
21.274148,7.220242121002208,0.12939311486516064
21.276536,7.201900244918231,0.12947988508273506
21.278916,7.187003491819647,0.1295389802601179
21.281312,7.171128351333041,0.1296505441092636
21.2837,7.152971570846298,0.12980753850178922
21.286084,7.138027595919473,0.12990742431055824
21.288488,7.123083620992646,0.1300076821129886
21.290872,7.1070687108791795,0.13012416019404366
21.293252,7.092264505579213,0.13021439175998628
21.295652,7.079090313973326,0.13025537961266703
21.298036,7.065404265688241,0.13028389982467287
21.300416,7.050507512589656,0.1303364526543775
21.302824,7.039614960983907,0.130332821621695
21.305212,7.035799646804045,0.13022806133033676
21.307592,7.033846663743741,0.13010281766203308
21.309988,7.037480674042105,0.12991650731444018
21.312376,7.050007031057675,0.12965137100812907
21.314756,7.065698971804914,0.12937517276679672
21.317152,7.0864660492316265,0.12902471014767913
21.31954,7.10751266591206,0.12866198295997355
21.321936,7.134006506324303,0.12824676696817877
21.324332,7.167158275281854,0.12775305532928172
21.32672,7.203383080172461,0.1272191057332992
21.3291,7.242029294690066,0.12663558699341051
21.331496,7.28817205551414,0.12593773631915547
21.333884,7.329379449285602,0.12530750908936808
21.336264,7.3713782389899825,0.12467359317462015
21.338668,7.411235158321086,0.12407468695320736
21.341056,7.45002114246555,0.12349545479970245
21.343436,7.485594321050098,0.12297244699166394
21.345832,7.516092362955175,0.12251702113979582
21.34822,7.547661340046889,0.12204704499159137
21.3506,7.575226115645771,0.12163033725772628
21.353,7.595853423445623,0.12130464390941804
21.355384,7.6176914360589745,0.120958780595098
21.357764,7.63766711755277,0.12063527758731887
21.36016,7.652614884195335,0.12034384115656929
21.362548,7.667050794158702,0.12004331509087775
21.364932,7.682045782629512,0.119718139908049
21.367328,7.6931763392343475,0.11943458946043847
21.369716,7.699651068040291,0.11919592375984443
21.372112,7.702401134607121,0.1189932069061775
21.374512,7.704499574867894,0.11878760520282095
21.376896,7.7039442880761895,0.11860102289678104
21.379276,7.694169893485322,0.1185310070343671
21.381676,7.687980391506706,0.118433474184553
21.38406,7.6812790328488925,0.11832450587845796
21.386444,7.673786278258161,0.11821725948938715
21.38884,7.665362358107652,0.11811843083700592
21.391224,7.6572179772108635,0.11800615267410358
21.393608,7.654008963366686,0.11783756205612506
21.396012,7.647866683216314,0.11770110556189414
21.3984,7.643866273439219,0.11753393766657085
21.40078,7.641076568475623,0.11734430412762992
21.403176,7.6321407916459165,0.11723290775947133
21.405564,7.618409417390456,0.11717132534041078
21.407948,7.601185698321362,0.11716950556319145
21.410352,7.577815907386156,0.11724801299016448
21.41274,7.5488119012640365,0.11741878493701942
21.415116,7.525534658127447,0.11752903193298739
21.417516,7.50719278204347,0.11758072562559004
21.419904,7.492063711519409,0.11758505228816875
21.422284,7.472790669875653,0.11764333215628778
21.42468,7.45845299528451,0.1176441735395633
21.427068,7.447467895880143,0.1175927406030823
21.429452,7.432386047184325,0.11755692592319963
21.431848,7.418095594421427,0.11751878596628766
21.434232,7.40794911277822,0.11742578815095109
21.436616,7.3998047318814315,0.11730888522603462
21.439012,7.389378710984506,0.11722892980954358
21.4414,7.377090358968022,0.1171655576275116
21.443784,7.37080830919079,0.11703132786623573
21.44618,7.364526259413557,0.11689697401366507
21.448568,7.360106540755881,0.1167459402396428
21.450948,7.360901728404537,0.11652603897221878
21.453344,7.366352743852085,0.11626354703577428
21.455732,7.376087500046187,0.1159399050193273
21.458128,7.392759724039318,0.11553531816961564
21.460524,7.416509185458338,0.11504337417757517
21.462912,7.4357425887053274,0.11458924753162773
21.465292,7.449109459339927,0.11419993523826777
21.467696,7.457401193295054,0.11387288555898759
21.470084,7.467415488742877,0.11353500548094221
21.472464,7.471143942697729,0.11328136103825835
21.47486,7.476455188518417,0.11302496681442237
21.477248,7.4841406221378595,0.11276330754365169
21.479632,7.4916862861304425,0.11250876505486368
21.482028,7.499092180496164,0.11226333678881317
21.484416,7.506637844488745,0.11201257067466165
21.486796,7.518187709974161,0.1117166522826015
21.489192,7.530528971392494,0.11141937689272582
21.49158,7.53486182982516,0.11121308825228234
21.49396,7.544409594564159,0.11094362967098614
21.49636,7.5539573593031575,0.11067556050432273
21.498744,7.566298620721491,0.11038769855026817
21.501124,7.577708716580046,0.11010815382142009
21.503528,7.587908107625104,0.10985005539433018
21.505916,7.597967729043301,0.10960041926225697
21.508296,7.608306889715217,0.10934120808598352
21.510692,7.621951403745667,0.10907268618571024
21.51308,7.641322680761647,0.10875529897731696
21.51546,7.665210015949658,0.10840799560628066
21.517864,7.688585494458472,0.10804894017710623
21.520252,7.715965174460119,0.1076469539069423
21.522632,7.7473490559546,0.10720953734098407
21.525032,7.777662002262444,0.10678507339759298
21.52742,7.808906114130062,0.10635496608677174
21.529804,7.836657881184048,0.10597859216253991
21.5322,7.863990339357452,0.10562329623212975
21.534588,7.887458365664882,0.105302871044842
21.536968,7.911066161599174,0.10497692352825144
21.539368,7.939329785332356,0.10461435548973061
21.541756,7.960888258691987,0.10434673896032212
21.544136,7.983377897611396,0.10407472728377791
21.546532,8.00186333503797,0.10384464729963436
21.54892,8.02556367877088,0.10356062740544128
21.5513,8.04819308731715,0.10328897951173502
21.553696,8.068168768810944,0.10303193402214149
21.556084,8.086002579931462,0.10280279065906375
21.558468,8.102393368813004,0.10256958661674465
21.560864,8.114919725828573,0.10236880986779721
21.563252,8.124932125418526,0.1021753951961504
21.565636,8.137598252060954,0.10197019031496127
21.568032,8.151754622770602,0.1017368890025972
21.57042,8.157111194561663,0.10157678412525648
21.572804,8.16647196784556,0.10138135361375976
21.5752,8.175041345196536,0.10118661850744082
21.577588,8.186171901801371,0.10095058564893605
21.579984,8.196650832100149,0.10070934926434759
21.582384,8.210994194264897,0.10043885333593364
21.584772,8.227991283482122,0.10015823884983369
21.587152,8.246199077512848,0.09986181229731245
21.589552,8.26496595005101,0.0995411371175929
21.59194,8.283732822589178,0.09922316782836585
21.59432,8.299706198448007,0.09892147947222196
21.596716,8.307112092813732,0.09871328205384639
21.5991,8.317730792739368,0.0984711862789751
21.60148,8.329140888597923,0.09822916979659939
21.603888,8.335336078150146,0.0980379676362754
21.606272,8.342182894008427,0.09785320272175137
21.608652,8.349821105799625,0.09766835647286029
21.611048,8.359321648710383,0.09747251631284953
21.613436,8.36682009087472,0.09729453773930791
21.615816,8.374550850464537,0.09714125817880291
21.618212,8.3912211785998,0.09691638339368185
21.6206,8.406029175615505,0.09670434731052713
21.62298,8.42069740300435,0.09649837457917076
21.625376,8.433363529646778,0.09630940906100031
21.62776,8.44388778591593,0.09614212650508297
21.630156,8.453480876625305,0.09598127716718724
21.632556,8.462422341028619,0.09581599148117849
21.63494,8.46656820800618,0.0956822793061345
21.637324,8.47229686684958,0.0955494794424379
21.63972,8.473229928267227,0.09544810007059087
21.642104,8.478958587110625,0.09531529648796533
21.644484,8.4904612307678,0.09511190792301896
21.646892,8.500892939238334,0.09492059094547838
21.649276,8.513326748455285,0.09471447005359822
21.65166,8.533117334351843,0.09443962941507454
21.654056,8.554118625061903,0.09415068203209427
