Time,Force,Position
5.125568,2.21245951004215,0.1444871721775587
5.170972,2.336230765654254,0.1443481403298445
5.175736,2.349869592111096,0.1443017316860208
5.1781440000000005,2.3557814506938604,0.144260441545841
5.180528,2.363835179649901,0.144107877931477
5.182908,2.3710975126730247,0.1439708842457123
5.185312000000001,2.385437083122037,0.1434774844525549
5.187696,2.407505517302996,0.142674257022656
5.190076,2.4274320811106787,0.1420126107922577
5.192480000000001,2.447638184172081,0.1413288407046949
5.194864,2.467332430554286,0.1406219068243778
5.197248000000001,2.4880976121231297,0.1398530210658607
5.199644,2.5103058159309493,0.1390716288323362
5.202027999999999,2.53158285417899,0.1383139843671732
5.204408,2.552208266120973,0.1375372797129107
5.206812,2.57139065582398,0.1367779558178616
5.2092,2.586848383287874,0.1361633349092309
5.2115800000000005,2.60137494519199,0.1355861175971107
5.213976,2.61282847116305,0.1351509022353869
5.216364,2.6276345723208863,0.1345417788475632
5.249823999999999,2.645092504673328,0.1340565200768415
5.254588000000001,2.6461634398599663,0.1340085311245601
5.256991999999999,2.6469548357928843,0.1339991041893776
5.2593760000000005,2.6486773972855806,0.1339610245872527
5.261755999999999,2.651470893964916,0.1338733655194071
5.26416,2.6522622898978336,0.1338642779574696
5.266547999999999,2.654916016950308,0.133798499243792
5.268923999999999,2.6587804488162816,0.1336666987719525
5.271328,2.660782549562698,0.133590861511128
5.273715999999999,2.664786751055532,0.133436180504308
5.276096,2.6788014562804507,0.1329039471567891
5.2785,2.688951729639395,0.1325059349376781
5.280884,2.7052480748644503,0.1318884111524179
5.283264,2.72433791676884,0.1311817959486226
5.285668,2.740354722740176,0.1305744802746227
5.288056,2.7543694279650937,0.1300356210147179
5.290436000000001,2.765311097256956,0.1296177691645725
5.292840000000001,2.774250665802402,0.1292770284588667
5.316736,2.820988351814944,0.1289146304025585
5.331084,2.8570185818189704,0.1287884637145781
5.333464,2.8671669593200453,0.1287204689332621
5.335871999999999,2.883181869433511,0.1284788588017419
5.338260000000001,2.901198880293393,0.1281644634066166
5.34064,2.9232200926461096,0.1277247086026905
5.343051999999999,2.945241304998825,0.1272943269740964
5.345444,2.967681826232122,0.1268148132932716
5.34782,2.9962684193315297,0.1261219754129279
5.350236,3.02857967467005,0.1253290604727738
5.352620000000001,3.058097433329236,0.1246128908213499
5.355,3.085752860868866,0.1239526593035473
5.357399999999999,3.1123373532218563,0.1233383964039206
5.359788000000001,3.1390616152017072,0.1226976603462973
5.362168,3.166065416435278,0.1220230079538117
5.3645640000000006,3.1977250454677413,0.1212441087441803
5.366952,3.2183032355814816,0.1208286741914065
5.369336,3.236879324948805,0.1204805931986575
5.371732000000001,3.2548037880100704,0.1201174051318399
5.374116,3.2691433584590825,0.1198300601396299
5.376496,3.2844140944678726,0.1195207254315815
5.378896,3.3018267008499405,0.1191412953983527
5.381284,3.315794184246615,0.1188277359520753
5.38366,3.325757466150456,0.1186343362266512
5.38606,3.3378626184275744,0.1183718658083419
5.388448,3.3473140436522177,0.1181597284300058
5.390828,3.356113842570804,0.1179401734638904
5.393228,3.3650534111162496,0.1177083171914351
5.395616,3.3679866774224454,0.1176359161503885
5.398000000000001,3.3693371518628035,0.1175722862575879
5.400396,3.3705478566763016,0.1175230787675522
5.402784,3.3737606622362177,0.1174215967190529
5.405164,3.3759025326094947,0.1173535157773777
5.40758,3.379906734102329,0.1172472715751709
5.409968,3.3856334970878588,0.1171194707867901
5.412348000000001,3.388846302647775,0.1170210290164438
5.414748,3.396482618581105,0.1167718842474435
5.417132,3.404258704141295,0.1165083795243044
5.419516000000001,3.4138971208210425,0.1162075322253393
5.421928,3.425537638247206,0.1158551431710044
5.424312,3.4355953638075336,0.1155104700901312
5.426692,3.442580053434805,0.1152531368072316
5.429108,3.446631476755882,0.11506523042733
5.431492,3.453244079330816,0.1147702491146439
5.433876000000001,3.459065285972832,0.1144831085125426
5.436280000000001,3.464606953361128,0.1142255069333558
5.438664,3.470288390376284,0.1139565344425639
5.441047999999999,3.475038661831662,0.1137063199163538
5.443444,3.485003839593372,0.1133121224906125
5.445828,3.495900182914861,0.1129035241296628
5.448208,3.5080072310498487,0.1124476238279331
5.4506120000000005,3.5181121784384195,0.1120439980846671
5.453,3.531429931386905,0.1115497389441773
5.455380000000001,3.5470293243355293,0.1109907638245006
5.4577800000000005,3.5609061557914563,0.1104554372446467
5.460164,3.572641116874107,0.1099812806749438
5.462544,3.5842363083298965,0.1095227732595562
5.464944,3.595551960531965,0.1090917657674004
5.467327999999999,3.6057966775473966,0.1086913421595515
5.469728000000001,3.61389952418955,0.1083500118984073
5.472124,3.6237249323244,0.1079912392096541
5.474512,3.634481506019029,0.1076152220481076
5.476892,3.647379950086934,0.1071778191046715
5.479288,3.656786049341203,0.1068600882001229
5.481675999999999,3.6669835445283914,0.1065456312524741
5.484056,3.67611010452894,0.1062585516766188
5.486452000000001,3.685236664529489,0.1059755058353247
5.488840000000001,3.695294390089816,0.1056794259340491
5.491219999999999,3.7032102452768663,0.1054428628085548
5.493616,3.711777726769975,0.1052209093773
5.496004,3.7223473090095,0.1049601662048543
5.498384000000001,3.733848056808804,0.1046862347511448
5.500788000000001,3.744138099794608,0.1044564741773207
5.503176000000001,3.7510755675936367,0.1043226152911903
5.505556,3.7588044313255833,0.1041888341828714
5.50796,3.769466561363725,0.104002882131583
5.510348,3.781851252894564,0.1038050445410797
5.512728,3.7955864188657618,0.103557554054747
5.515123999999999,3.8096011240906793,0.1032848413675959
5.517512000000001,3.824686764502236,0.1029844335021605
5.519892,3.838841239354015,0.1026985412160827
5.5222880000000005,3.8547182756984895,0.1024006371326073
5.524676,3.875111370214995,0.1020591662836521
5.527068000000001,3.898297961410836,0.1016791413964244
5.529464,3.918411516673621,0.1013637526645781
5.531852,3.940527172682825,0.1010096872504845
5.534228,3.9580795486917526,0.1007772356394341
5.536636000000001,3.973350284700543,0.1006073157514062
5.53902,3.992625222202167,0.1003669027926409
5.541404000000001,4.010317367837955,0.1001295267609855
5.5438,4.0288009094066615,0.0998993224677285
5.546188,4.0466328246693095,0.0996595682982943
5.548568,4.06367334399904,0.0994215290934084
5.550964,4.077780597022575,0.0992271533909697
5.553351999999999,4.090025518926553,0.0990571422626039
5.5557360000000005,4.100128570457255,0.0989366966613954
5.558132,4.109300456428177,0.098829857838649
5.56052,4.116190702398964,0.0987825785979214
5.5629,4.122010013183111,0.0987589445299314
5.565304,4.131181899154034,0.0986549308979945
5.567688,4.139562389192039,0.0985505509688977
5.570068,4.1475707921777065,0.0984128523729621
5.572472,4.146919165871648,0.0984009126094495
5.574856,4.144964286953474,0.0983650622400354
5.577240000000001,4.145151278408577,0.0982837766985868
5.579644000000001,4.145617809117401,0.0981799675555981
5.582028,4.154512051692473,0.0979089864406084
5.584412,4.165036307961624,0.0975691941800882
5.586816,4.171835901991662,0.0972778008533384
5.589200000000001,4.1786354960217,0.0969869656960698
5.59158,4.179568557439348,0.0967823247867223
5.5939760000000005,4.181153245163053,0.0965903504914837
5.596364,4.18152722807326,0.0964310000287538
5.598744000000001,4.186324721356882,0.0961719348676204
5.601147999999999,4.192984545760059,0.0958916375239025
5.603536000000001,4.199923909416958,0.0955886769141967
5.605916,4.203930006767659,0.095328019550195
5.608312000000001,4.211009140051418,0.0950134310150525
5.6107000000000005,4.222092474828011,0.0946365754185457
5.613084,4.225679263298132,0.0944117080232963
5.615480000000001,4.2308488436340905,0.0941883992523329
5.6178680000000005,4.230663748036856,0.0940732872874999
5.620247999999999,4.236345185052013,0.0938705913918548
5.622652,4.24053637799995,0.0937241852932882
5.63698,4.223592198184575,0.0935952009547589
5.639368,4.22242871519932,0.0935592426037714
5.641748000000001,4.221684541094645,0.0934899130221498
5.644152000000001,4.227226208482941,0.093308223860734
5.646536,4.233559271804156,0.0931305794608745
5.64892,4.24003210475223,0.0929433526901345
5.651324,4.2477156425138025,0.0927268370499985
5.653708000000001,4.25954315139507,0.0924417080451194
5.656088,4.267506228410364,0.0922041725855067
5.658492,4.273606974306101,0.0919880633847563
5.66088,4.288275201694946,0.0916168721194367
5.66326,4.302431572404592,0.0912241800697153
5.665655999999999,4.324736115726767,0.0907086474649386
5.668043999999999,4.345178327929386,0.0902149281352457
5.670424,4.367902180132141,0.0896728647021875
5.672823999999999,4.38876370121534,0.0891494632240296
5.675211999999999,4.408694056738761,0.0886373983473575
5.677592,4.436073736740409,0.0880550977579759
5.679996,4.4615910856225,0.0874899964692215
5.682379999999999,4.490321240064506,0.0868663976247844
5.68476,4.521984660812707,0.0862150716403075
5.687156000000001,4.548572944881435,0.0856416401513828
5.689544000000001,4.571668884136529,0.0851444786401412
5.691923999999999,4.587687585965734,0.0847521507768676
5.69432,4.600633251861883,0.0844062700881897
5.696708,4.612927291451973,0.0840502811716027
5.699103999999999,4.625081561415202,0.0837082409118766
5.7015,4.635513269885736,0.0833746722841951
5.703888,4.650088949475964,0.0829824280548114
5.706268000000001,4.663873233133273,0.0825906453131398
5.708672000000001,4.676307042350225,0.0822449627809623
5.711056,4.687669916380537,0.0819161467752875
5.713436000000001,4.697170459291294,0.0816072628279636
5.715840000000001,4.707741937388688,0.0812839111433156
5.718228000000001,4.7163113147396665,0.0809838545714368
5.720608,4.725811857650422,0.0806772434925203
5.723012,4.736243566120956,0.0803656145025056
5.7254,4.744952713098795,0.0800606844091351
5.727784000000001,4.758597227129243,0.0797093515028053
5.73018,4.769308474853499,0.079385713268315
5.732568,4.77629506033864,0.0790882907843178
5.734948,4.787285847316614,0.0787493129317525
5.737343999999999,4.801768979108226,0.0783455741500498
5.739732000000001,4.818254211646254,0.077919140059963
5.742112,4.837672710490476,0.0774672022844712
5.744516,4.857603066013897,0.0770400760124496
5.746904,4.877253882283597,0.0766346236850929
5.74928,4.895554224112938,0.0762631459140861
5.751688000000001,4.913575026688559,0.0759154875006608
5.754076,4.932107685943377,0.0755920116671354
5.756456000000001,4.945565208518725,0.0753239529279152
5.758859999999999,4.963026932586905,0.0750193834163201
5.761247999999999,4.97620491590853,0.0747726413651122
5.763628,4.987241028856879,0.0745548982586919
5.766032,5.001210408111422,0.0743142106617192
5.768415999999999,5.016390492179466,0.0740524669395458
5.770796,5.030639410687731,0.0737969989504149
5.773192000000001,5.043817394009357,0.073556891257361
5.775580000000001,5.052339549532091,0.0733433709353649
5.777964,5.062584266547522,0.0731284582442577
5.780360000000001,5.075482710615427,0.0729095242714012
5.782748000000001,5.087310219496694,0.0727063410053536
5.785127999999999,5.098718419497379,0.072531005531437
5.787532,5.1090556843114285,0.0723686998444775
5.789916000000001,5.11781015725964,0.072199494902375
5.7923,5.128054874275071,0.0719935524327195
5.794696000000001,5.136437260170944,0.0717961594084295
5.797084000000001,5.146681977186375,0.071590216938774
5.799464,5.153062262335832,0.0714101133056052
5.801863999999999,5.158511381925511,0.0712346236737744
5.804248,5.16624214151533,0.0710242454182286
5.806628000000001,5.16968916035859,0.0708660926189949
5.809024,5.174207114388491,0.0706940371693605
5.811412,5.183660435471003,0.0704853039425757
5.813796000000001,5.191903051740016,0.0702994307588263
5.816192,5.198655423941811,0.0701522430128824
5.81858,5.20340569539719,0.0700211780277694
5.82096,5.208016197225708,0.069898716073343
5.823356,5.214349260546922,0.0697770764062205
5.825743999999999,5.222684424614553,0.0696397683362603
5.828128,5.230088423122406,0.0695075939625548
5.830524,5.2364214864436205,0.0693880675510256
5.832911999999999,5.241823384205056,0.0692726270727863
5.835292,5.252300418645965,0.0691146744717586
5.837696,5.267153741632043,0.0689575383417921
5.84008,5.2743707486847935,0.0688908082054067
5.84246,5.283729626110819,0.0688006310822141
5.844864,5.292017568350207,0.0687223525321274
5.847252,5.30216784170915,0.0686363823602666
5.849632000000001,5.314320215814512,0.0685355871536231
5.852036000000001,5.326984446599071,0.0684562707855286
5.854424000000001,5.341790547756907,0.0683533807515225
5.856804,5.3593901455940784,0.0682400311315693
5.859208,5.372054376378637,0.0681620233737192
5.861596,5.3847186071631965,0.0680844486671592
5.863976,5.401526809067449,0.067970128935148
5.866371999999999,5.423130608397453,0.0678313386604214
5.868760000000001,5.446596738847014,0.0676865140331818
5.87114,5.468852164483078,0.0675614271815404
5.8735360000000005,5.491898986052059,0.0674430252595277
5.875924,5.512943706874623,0.0673394600012337
5.878308,5.535990528443603,0.0672224438769334
5.880704000000001,5.558897580385724,0.0671129477266057
5.883088,5.576449956394651,0.0670599471041034
5.885468,5.585342303111855,0.0670514750236345
5.887872000000001,5.602662361695304,0.0669620476431262
5.890256,5.6197028810250345,0.0668892600995212
5.892636,5.636091774048706,0.0668038094565107
5.895032,5.654622537445657,0.066697461493594
5.897416000000001,5.667007228976495,0.0666404159907306
5.899795999999999,5.679671459761053,0.0665681246010418
5.9022,5.694337791292029,0.0664832684942805
5.904588,5.707421330957168,0.0663900002083766
5.906968,5.721715575435807,0.0662784944056428
5.909364000000001,5.731353992115554,0.0661814805645792
5.911752000000001,5.734194710623132,0.0661215026603506
5.914132,5.733310766891597,0.0660737133946188
5.916536,5.730844031294227,0.0660166260372982
5.918924,5.728936374204296,0.0659289727162372
5.921304,5.723583594128973,0.065837757885081
5.923708,5.719441518867148,0.0657282883923138
5.926092,5.7118543206199295,0.0656146184363271
5.928476000000001,5.707899236813208,0.0654478127946553
5.930879999999999,5.704643001140788,0.0652427043211806
5.933268000000001,5.7053909669612,0.0650101489520981
5.935644000000001,5.707070098341394,0.0647780503668376
5.938052,5.706095502669111,0.0645459262284024
5.940436000000001,5.707402546996965,0.0642864952613975
5.942816,5.704845159458846,0.0640447487180792
5.945212000000001,5.7080617567345,0.0637293839980293
5.9476,5.709695562144317,0.0634043969384487
5.949980000000001,5.704671439008827,0.0631035210547605
5.952376,5.7016494166197536,0.062791517222934
5.954764,5.700629494977097,0.0624687694836911
5.957144,5.706826580387188,0.0620933856227768
5.959548000000001,5.715165536170558,0.0616964808070848
5.961936000000001,5.724575427140566,0.061289870769713
5.9643120000000005,5.733193922177655,0.06087836108842
5.966716000000001,5.742743582774524,0.0604667610706714
5.969104000000001,5.75443511374467,0.0600377427409313
5.971483999999999,5.771062011767428,0.0595897835670808
5.97388,5.7909942631487175,0.0591572383419535
5.976268,5.803709507477256,0.0587748116118186
5.978648000000001,5.8181473132984936,0.0583974526060539
5.981052000000001,5.832724888746592,0.0580136364863684
5.983440000000001,5.842367097142077,0.0576554350869443
5.98582,5.8550823414706175,0.0572782738070918
5.988224,5.868588981732076,0.0569103726519119
5.990612,5.887310528299867,0.0565089485435412
5.992992,5.904681600427299,0.0561330577150891
5.995387999999999,5.924706399607207,0.0557624844760339
5.997772,5.949526796212865,0.0553775714089407
6.000152000000001,5.973416027258746,0.0549981161136374
6.002555999999999,5.992230121625155,0.0546460393982637
6.004944000000001,6.0076916408047865,0.0543286537846564
6.007324,6.023944555917337,0.0540174602112544
6.009723999999999,6.044341442149582,0.0536855551152121
6.0121080000000005,6.064458789128105,0.053367665756663
6.014492,6.082154726479631,0.0530798491228076
6.016892,6.097429254204161,0.0528224115889364
6.019279999999999,6.101762112636828,0.0526085403620598
6.02166,6.102510078457241,0.0523909794590395
6.024064,6.110335281703543,0.052140570229939
6.026452,6.116298153830291,0.0518921480565367
6.028832,6.122400795583896,0.0516374860939269
6.031236000000001,6.127712041404585,0.0513757368649591
6.0336240000000005,6.12887931610558,0.0511365719688073
6.036003999999999,6.125902619686879,0.050920472793909
6.038408,6.1205045136411815,0.0507340487555649
6.040795999999999,6.114035472408845,0.0505545587228919
6.043176,6.103841768937396,0.0503765317675037
6.045568,6.094719000652585,0.0501918291978414
6.047956,6.079170621247943,0.050048944439655
6.401532,1.306272925402047,0.0499699280789117
