Time,Force,Position
6.852119999999999,1.3841668207762434,0.1061073298308297
6.854516,1.3860291518958,0.1060385686198207
6.8569,1.3912440582021324,0.1057096623243717
6.85928,1.3992524611877994,0.1052767516706346
6.861684,1.4063296986136888,0.1048813002636947
6.864072,1.4112650656663006,0.1046284725279735
6.866451999999999,1.4207164908909444,0.1042264412200642
6.868848,1.4268153409288118,0.1040789578716251
6.871231999999999,1.435987226899735,0.103754043232354
6.873612,1.4475333006694122,0.1034293860696064
6.876016,1.4621524103721448,0.102901638341004
6.878404,1.472627548955184,0.1026525060154983
6.880784,1.4831026875382225,0.1023982034781856
6.883179999999999,1.4947885309347604,0.1020311176537582
6.885563999999999,1.5004680720920476,0.1019859570127896
6.887943999999999,1.5072185484359728,0.1018733193771549
6.89034,1.520115096646009,0.1014322019216109
6.892728,1.525934407430156,0.1013594229606328
6.895107999999999,1.5346869845204985,0.1011535374597021
6.897508,1.548374928663453,0.1007371961637515
6.899896,1.5602005416868507,0.100399812170293
6.902275999999999,1.5716068458296677,0.1001649566417258
6.904672,1.5876689777713766,0.0997948978780176
6.90706,1.6032192530338876,0.0993926306129155
6.90944,1.6209113986696757,0.0988885545029747
6.911844,1.6386035443054638,0.0983658694672464
6.914232,1.6536419628887773,0.0979102956462327
6.916611999999999,1.6700308559124497,0.0973442211881547
6.919003999999999,1.6853488137494834,0.0968419604306245
6.921391999999999,1.6980130445340424,0.0963930267027116
6.923772,1.7093268008782423,0.0960441347016156
6.926167999999999,1.7214319531553604,0.0956980459787241
6.928556,1.730883378380004,0.0953929233118673
6.930947999999999,1.7441992354706208,0.0949679524699901
6.933344,1.7628697684944306,0.0942906501542337
6.935727999999999,1.7801898270778809,0.0937135298435314
6.938108,1.7913638137952208,0.093411130020065
6.940503999999999,1.808544102751811,0.0928696895066232
6.942891999999999,1.8245136868949023,0.0924140119154815
6.962024,1.8652016405556897,0.0923331440650248
6.964411999999999,1.871812347272755,0.0923143320496358
6.966792,1.8785628236166807,0.0922719956997475
6.969196,1.8870358614533025,0.0922118191394599
6.971579999999999,1.9011431144768376,0.091887388403204
6.973963999999999,1.9145987411943148,0.0915380474032219
6.976355999999999,1.9345725268302405,0.0910515278138205
6.981123999999999,1.9510539676525296,0.0907504742745738
6.983523999999999,1.9563614217574796,0.0906789983882318
6.985908,1.963810746235706,0.0905147398903979
6.988287999999999,1.968326804407737,0.0904394862066067
6.990684,1.9748449633261853,0.0903024847817933
6.993067999999999,1.985926402244908,0.0899450183503854
6.995464,1.9907219996706595,0.0898250621621117
6.997859999999999,1.9976594674696888,0.0896196360410687
7.000244,2.0063194967614137,0.0893937738363284
7.002623999999999,2.025129799412084,0.0888086452350456
7.026527999999999,2.032531902062067,0.0887134940185643
7.028915999999999,2.0361167946743204,0.0886613242890401
7.031295999999999,2.0398414569134333,0.0885879964373486
7.033692,2.046499385458742,0.0884414418502004
7.040856,2.0527380051234703,0.0883588693439285
7.043244,2.0560905803102463,0.0882176769752071
7.045636,2.0563701195639665,0.0881729590362229
7.050419999999999,2.055346406205571,0.0880727786904738
7.057592,2.052972218406816,0.0880601809680108
7.059975999999999,2.0548345495263725,0.0880233215825625
7.062379999999999,2.060189225459565,0.0878215844785168
7.064764,2.067825541392895,0.0875235137135345
7.067143999999999,2.0757413965799456,0.0871765474263906
7.069543999999999,2.087009826953772,0.0866897137052359
7.071928,2.0992094228873763,0.0861918070625042
7.074311999999999,2.112340184380759,0.0856865994408585
7.076703999999999,2.121606514008169,0.0852839263953672
7.079087999999999,2.130872843635578,0.084888344586369
7.081467999999999,2.1381370725165705,0.0845531052026261
7.083872,2.1514076036368133,0.08407455824634
7.086259999999999,2.16868233624989,0.0835073542634587
7.08864,2.184466824795748,0.0830292583318599
7.091032,2.1998320044610247,0.0826227611194484
7.093416,2.221203486365552,0.082080762939167
7.095811999999999,2.247650104949552,0.0814507138025804
7.098203999999999,2.2763783635336887,0.0807532144146281
7.100591999999999,2.306317326931324,0.0800089920890926
7.102983999999999,2.339748635142596,0.0791282520208801
7.105388,2.3750422744734245,0.0782216880112629
7.107775999999999,2.41247778417753,0.0772799368270994
7.110156,2.4437672220155244,0.0764941077732289
7.112548,2.4755685165327166,0.0757828704042061
7.114936,2.510163307729244,0.0750481061694749
7.117312,2.541685062992716,0.0743922588605412
7.119707999999999,2.573067048629328,0.0737645412342781
7.122095999999999,2.6015157679597447,0.0731868371356243
7.124476,2.629684948036441,0.0726449279579208
7.126868,2.657714358486277,0.0721292022079458
7.129256,2.6861630778166927,0.071573363514619
7.131651999999999,2.7132613227067504,0.0711006612710661
7.134043999999999,2.734073726103837,0.0707649772723228
7.167484,2.848044219733391,0.0703553176768467
7.169876,2.860241919809126,0.0703509937773
7.172264,2.875652425444777,0.0702841051480555
7.177064,2.904983192648859,0.0702194325584789
7.179447999999999,2.9155981008587584,0.070203089737172
7.181827999999999,2.9314279153749903,0.0700953596491004
7.184232,2.945255629144805,0.0700181117108576
7.18662,2.9641584795940914,0.0698665704603269
7.188996,2.9833408692970997,0.0696861349581675
7.1914,3.002663028626966,0.0694840913588408
7.193788,3.0222647272105547,0.0692481889481351
7.196168,3.0447996921003373,0.0689825157249972
7.198559999999999,3.0678937354975617,0.0686694347646717
7.200948,3.087402886282532,0.0683605691104334
7.203324,3.109985073000558,0.0680015995108627
7.205727999999999,3.130704928599028,0.0676667870158115
7.208115999999999,3.1529150282647165,0.0672635469218987
7.210495999999999,3.17219186162421,0.0668941205917014
7.212892,3.185602162371313,0.06659487452364
7.21528,3.194636174573245,0.0663027277680376
7.217659999999999,3.2038099564020386,0.0660035219929649
7.220056,3.211121407111273,0.0657206671169514
7.222439999999999,3.217781231514452,0.0654175731428083
7.224836,3.223789429611572,0.0650914008390682
7.227231999999999,3.2304492540147494,0.064787161357275
7.229619999999999,3.2335241858056736,0.0644898516428313
7.231999999999999,3.237530283156376,0.0641892857736269
7.234404,3.2399535886412427,0.0638759059826321
7.236791999999999,3.2454499300591646,0.0635274773832325
7.239172,3.258303048156696,0.063077942874448
7.241564,3.273298036627505,0.062595949471794
7.243952,3.2876413987922555,0.0621028737150824
7.246331999999999,3.2950472931579777,0.0616738986790032
7.248723999999999,3.308179950509229,0.061208431466658
7.251111999999999,3.318379341554287,0.0607658231396216
7.253503999999999,3.322851969613813,0.0603553400881142
7.255899999999999,3.3309094902855927,0.0599473635331808
7.258284,3.342179816517288,0.059492857857329
7.260679999999999,3.357314574614957,0.0590127568103899
7.263071999999999,3.36895698789899,0.0586005768584363
7.265459999999999,3.376315660436469,0.0582542439854272
7.26784,3.3835345633470872,0.057923983596461
7.270244,3.390473927003985,0.0576199434744226
7.272627999999999,3.3982046865938016,0.0573250564122654
7.275008,3.404212884690921,0.0570220962896746
7.277412,3.41552853689299,0.0567293568885775
7.2798,3.4237711531620043,0.0564700662283609
7.296507999999999,3.348163543080596,0.0562813555378083
7.298912,3.339271196363394,0.0562664185359547
7.301295999999999,3.335174447071944,0.0562272515370499
7.30846,3.2979750465090527,0.0562256786478369
7.310855999999999,3.286289203112516,0.0562160512563992
7.315643999999999,3.2630572859463,0.0561850342297249
7.318023999999999,3.2515112121766228,0.0561623169520829
7.320428,3.2401049080338056,0.0561264315730864
7.322815999999999,3.235216762809437,0.0560756450296685
7.325196,3.2258125594130376,0.0560223186871045
7.327591999999999,3.222554427882748,0.0559078572948745
7.329976,3.225162828964849,0.0557574473643124
7.332355999999999,3.23363776265934,0.0555687063019212
7.334764,3.249841560085778,0.0553363407568212
7.337147999999999,3.261389529713325,0.0551146405843023
7.339528,3.278804031953262,0.0548556011178016
7.341927999999999,3.2982206349396157,0.054582449894029
7.344311999999999,3.3127018708733567,0.0543475857375604
7.346691999999999,3.324901466806961,0.0541566720424197
7.349083999999999,3.3352387316210086,0.0539700523721086
7.351471999999999,3.3495801979278896,0.0537534903235166
7.353852,3.3696484272203016,0.0535190249605231
7.356244,3.388505951699215,0.0533085239708392
7.358632,3.408993489872207,0.0530382475344104
7.361027999999999,3.4304121936049783,0.0527691469945331
7.36342,3.456114638084303,0.0524436787778076
7.365807999999999,3.477021485137876,0.0521391446206041
7.3682,3.498999267378088,0.051824758385384
7.370595999999999,3.511665394020516,0.0515229231567183
7.37298,3.5246110599166647,0.051197267321585
7.375359999999999,3.531550423573562,0.0509163161535593
7.377756,3.5318318586851527,0.0506522018706856
7.380144,3.530250962677185,0.0503896249305982
7.382524,3.5233626125642683,0.0501064347153095
7.384927999999999,3.518988219876966,0.0498435547717461
7.387312,3.507955898644356,0.0495958376471427
7.389695999999999,3.4941300807324107,0.0493495369493178
7.392099999999999,3.4808161194996634,0.0491379313732302
7.394484,3.463125869721744,0.0489023256774281
