Time,Force,Position
19.833744,0.9871341633825964,0.0873717917899563
19.838528,0.9987727849508908,0.0873484985075576
19.843308,1.0114823417058236,0.0872600082500324
19.845692,1.0234477243560816,0.0868757224052786
19.848076,1.0336905455136431,0.0865433094896669
19.850472,1.0451440714847036,0.0861139496363788
19.85286,1.0550148055899278,0.0856589072581297
19.85524,1.0622318126426769,0.0852514053235061
19.857644,1.06786602782959,0.0848128125198689
19.860032,1.0702874374565874,0.0845962786622772
19.862412,1.07550234376292,0.0843009854762448
19.864808,1.0817881852558908,0.0839157703622991
19.867196,1.0879342571220014,0.0835785169065498
19.86958,1.0991554656675846,0.0829462681710578
19.871976,1.1161034371986978,0.0821222277865277
19.874364,1.1369158405957844,0.081148149395004
19.876744,1.1558659128733144,0.0802613507004423
19.879144,1.175327841830042,0.0794470149630312
19.881528,1.192647900413493,0.0787752710939662
19.883912,1.202750951944194,0.0785166886918403
19.886308,1.217649600900647,0.0780918391025293
19.888696,1.2297547531777653,0.0777728915486047
19.891076,1.2402771135890471,0.07741808802396
19.893476,1.2495887691868304,0.0771908351599222
19.89586,1.2567585544113369,0.077082619318342
19.898244,1.2628574044492042,0.0770397623748139
19.90064,1.2745432478457417,0.0768866345310561
19.903028,1.2891623575484743,0.0766466802443608
19.905412,1.3047126328109853,0.0763827913877534
19.907808,1.3204026777003564,0.0760796554894021
19.910196,1.3345099307238917,0.0757645707744184
19.912592,1.3555546515464554,0.0752480338902119
19.914988,1.3790207819960167,0.0746028721953204
19.917376,1.4026266820724385,0.073959635567902
19.919756,1.4220886110291662,0.0734990747739143
19.922152,1.436103316254084,0.0730992824888178
19.92454,1.4511889566656406,0.0726630226656189
19.926924,1.470558337823751,0.0720732669203
19.92932,1.4920695893551388,0.0713976340662203
19.931708,1.5187957471928588,0.0705246137407527
19.934092,1.541517703537745,0.0697830241032281
19.936488,1.5608870846958558,0.069173912463859
19.938876,1.5859832288394966,0.0684761925428795
19.941256,1.6082858763038024,0.0678264167541554
19.943656,1.630588523768108,0.0671549480739682
19.946044,1.6539621064190524,0.0664636822737504
19.948424,1.6716089260844669,0.0659052176417126
20.008176,1.7950289490807951,0.0658934661892307
20.010564,1.794377322774737,0.0658532867278124
20.01294,1.798800833148151,0.0656943423130167
20.015336,1.800570616469091,0.0655410880891618
20.017724,1.800617838297334,0.0653843763365459
20.020104,1.8035983264317723,0.0651813267058651
20.022504,1.8013639082598782,0.0651113130591107
20.024892,1.8000606556477623,0.0650336250691225
20.027272,1.803972309341979,0.0648238250647886
20.029672,1.8069527974764168,0.0646263167917348
20.03206,1.8087225807973568,0.0644833205909865
20.03444,1.8127740041184337,0.0642509210618576
20.03684,1.816965197066371,0.0639988647695652
20.039224,1.823158490760725,0.0637097141851736
20.041604,1.8359171652017705,0.0632100152535295
20.043996,1.8517488755758709,0.0626484640092501
20.04638,1.866649420390193,0.0621022821094855
20.04876,1.8783371596446,0.0616643735045131
20.051176,1.891235603712505,0.0611784049730144
20.05356,1.9042738174072715,0.0606664078597301
20.05594,1.9231785637144272,0.0600632739517527
20.058332,1.937520030021309,0.0596212964167879
20.06072,1.9489282300219948,0.059232874357699
20.063096,1.9592654948360424,0.0588718305527323
20.065512,1.9680199677842545,0.0584828008485607
20.067896,1.977426067038524,0.0581423324555308
20.070276,1.9920470725991264,0.0576875160034617
20.07268,2.0048057470401712,0.0572430431998186
20.075068,2.014491385548161,0.0568660834491528
20.077444,2.023245858496373,0.0564981157769238
20.079848,2.0361443025642783,0.0560628682396525
20.082232,2.0531867177518777,0.0555601688737627
20.084612,2.071160298499256,0.0550654888848814
20.087008,2.0864801521941585,0.0545642682880947
20.089392,2.1020323233145386,0.0541756364523451
20.091772,2.111438422568809,0.0538789561168497
20.094168,2.120704752196218,0.0536030378189324
20.096552,2.1282485203309305,0.0533135527021588
20.098932,2.1331385614131686,0.0530125080469517
20.101328,2.1413339558539395,0.0527628416273101
20.103716,2.147806788802014,0.0525029532247857
20.106096,2.161077319922257,0.0521888057134093
20.108492,2.17462739029622,0.0518417836283896
20.11088,2.1891086262299617,0.0514911706302373
20.452588,1.0406188832603016,0.0512811991378865
