Time,Force,Position
3.7560160000000007,2.777130863003327,0.1790833220794356
3.758420000000001,2.783554578265289,0.1789918073127833
3.760808000000001,2.796356682818839,0.1786151268460448
3.763188,2.8115801969993863,0.178091264473838
3.765592,2.825360688940958,0.1775880477988144
3.767976000000001,2.833646735322477,0.1774141791580952
3.770356,2.851151889503161,0.1767493120115046
3.77276,2.8690291307361835,0.1761233754004339
3.775144000000001,2.8827624008495114,0.1757334694895106
3.777524,2.899848246149616,0.1751489692584019
3.7799200000000006,2.914839442904686,0.17459035703187
3.782308,2.927688769286479,0.1741581232008272
3.784688000000001,2.939467160481633,0.1737869885979897
3.787084,2.949383220557231,0.1734944025314485
3.789472,2.956226244699774,0.1733576014620117
3.791856000000001,2.9665616136559527,0.1730098313581898
3.794252,2.9808086363063477,0.172381898595625
3.796636,2.993333097464047,0.171820924894874
3.799016,3.008651055301081,0.1711366201849132
3.801412000000001,3.030394624257945,0.1701091442545841
3.8038000000000007,3.053628437282029,0.1689612953672336
3.80618,3.0676431425069475,0.1683024767650452
3.808576,3.0804943647466096,0.1676385953042128
3.810964,3.084266248813966,0.1673961066677725
3.8133440000000007,3.0900402336277386,0.167062738712333
3.81574,3.106244031054177,0.1662292809535294
3.818128,3.1145791951218085,0.1657500545495634
3.820512000000001,3.1249164599358563,0.1651879615259536
3.822908,3.136184890309682,0.164586638949298
3.825292000000001,3.1446598240041728,0.1640979675676511
3.827676,3.157371276616975,0.1635056456947488
3.830088,3.1750180962823897,0.1627315272539481
3.832476,3.1948067863210805,0.1618663556877329
3.8348720000000007,3.2155266419195505,0.1609643991002522
3.837268,3.239971159757133,0.1599291052436938
3.839656,3.260271706475022,0.1590868746572746
3.842036,3.282946440991665,0.1582282384161085
3.844432,3.3073437370010046,0.1573356346467927
3.846820000000001,3.334162442637341,0.1563383061062795
3.849196000000001,3.3608413786468185,0.1554049232099291
3.8516,3.388963336895272,0.1544776310486827
3.8539879999999993,3.422719510330638,0.1533054272708244
3.856368,3.4549854396987847,0.1522343740795824
3.858772,3.494468376119681,0.1508654761709132
3.861156,3.534463169219775,0.149539266414174
3.86354,3.564447458587785,0.1485955851078032
3.865936,3.595502683142433,0.147596229855137
3.868324,3.62762884288372,0.1465812696391042
3.870704,3.660174311505588,0.145521603543387
3.873100000000001,3.691509075313956,0.1445144883791699
3.875484,3.717256845763655,0.1436746173935766
3.877868,3.7354155221082657,0.1430650026096775
3.880264,3.750501162519823,0.1425648000413265
3.882648,3.7666577381180177,0.1420274549825562
3.885028,3.780300356290598,0.1415378131154514
3.8874239999999993,3.79436228334376,0.1409992011084766
3.889812000000001,3.804839317784668,0.1405546010830736
3.892192,3.8134540211060193,0.1401624718713763
3.894592,3.820858019613872,0.139832571028101
3.896976,3.820393384762917,0.1397347350422003
3.90892,3.807453406440376,0.1396787899903785
3.911304,3.810713433828535,0.1394983984392993
3.913684,3.816766957896028,0.1392549997681049
3.9161,3.818816280470689,0.1391250964293047
3.918484,3.8233795604709626,0.1389613792830289
3.920864,3.8330179771507096,0.1386575507264394
3.923264,3.844518724950013,0.1383099908097057
3.925652,3.860023674242151,0.1378504075929769
3.928032,3.8778102635344247,0.1373093937593157
3.930428000000001,3.894246378386341,0.136830970175826
3.9328160000000008,3.913196450663871,0.1363194131456322
3.935196,3.934520710740156,0.1357893757541745
3.937596000000001,3.952632165256524,0.1353545126756796
3.93998,3.970883389399753,0.134906918267588
3.9423600000000008,3.9871325127965656,0.1345186503062327
3.944756,4.0112502695521846,0.1339262153114128
3.947144,4.032714299255328,0.1333788944233915
3.99494,3.998453852572241,0.1333205227086069
3.997328,3.99668596510917,0.1332157645391066
3.999708,3.9971997176462377,0.1330338959584328
4.002104000000001,3.9934297294367513,0.1329804221454595
4.004492000000001,3.990079050107844,0.1328878550434949
4.006872,3.992455133764467,0.1326639659586555
4.0092680000000005,3.9929688863015342,0.1324783293102244
4.011656,3.9979986970106327,0.1322079728548343
4.01404,3.999164075853757,0.1320288696513249
4.016436000000001,3.998606893204186,0.1318756026126217
4.018824,3.9981894801814746,0.1317090490262381
4.021204000000001,4.000984872718679,0.1314416363638713
4.023604000000001,4.003780265255884,0.1311761353898851
4.0259920000000005,4.008158449658924,0.1308996970064615
4.028372000000001,4.012908721114302,0.1306560790784344
4.047492,3.990938522305568,0.1305391816380396
4.049872000000001,3.994989945626645,0.130366485111621
4.052272,4.002254174507637,0.13010120308481
4.05466,4.005514201895796,0.1299356792780714
4.057040000000001,4.013057970030509,0.129645354986571
4.059436,4.012593335179554,0.1295534415101565
4.061824,4.0159931321945725,0.129372951476429
4.064204,4.023117591448705,0.1291178216448288
4.066604,4.030893677008895,0.1288708237872402
4.068992,4.037598827382446,0.1286565281847913
4.071372,4.041230941822942,0.1285231476307088
4.073772,4.042349098837824,0.1284201790468653
4.076156000000001,4.046680061412622,0.1282253661568104
4.078536,4.050591715106839,0.1280675776395304
4.080936,4.053711972868137,0.1279136845790981
4.083323999999999,4.054830129883018,0.1278101370094744
4.085704,4.061163193204233,0.12756078518436
4.088100000000001,4.07164022764514,0.1272015066065778
4.090491999999999,4.083607506153268,0.1267777573152534
4.092872,4.094224310221036,0.1264087146771441
4.095268000000001,4.103770179102166,0.126077905067141
4.097656000000001,4.108240911303823,0.1258748483286245
4.10004,4.110290233878484,0.1257581202625903
4.102436000000001,4.117414693132615,0.1255189802625774
4.104828,4.12211774275975,0.1253651680258108
4.107208,4.135108734626273,0.1249992434830957
4.109604000000001,4.148891122425714,0.1246332676843635
4.111996,4.159088617612902,0.1243236180124945
4.114376,4.16970542168067,0.1239799827613631
4.116772000000001,4.180601765002159,0.1236128468969286
4.119164,4.195781849070202,0.123132090398942
4.121544,4.21361566019072,0.1226178853566347
4.123939999999999,4.228516205005042,0.122171140183012
4.126332,4.246909094633001,0.1216189288927856
4.128712,4.267304085007375,0.1210194601758916
4.131107999999999,4.290772111314805,0.1203517066437928
4.133496000000001,4.311167101689181,0.1197594230907815
4.13588,4.327557890570722,0.1192599855977585
4.138275999999999,4.341667039452126,0.1188314271881011
4.140664000000001,4.359268533147167,0.1183007530390204
4.143048,4.373005594976234,0.1178430185515668
4.145444,4.389675923111496,0.1173270821077223
4.147836,4.407417186433396,0.1167866546041369
4.150220000000001,4.419291917142907,0.1163609892094302
4.152616,4.431446187106136,0.1159120156310661
4.155004,4.440667190763173,0.1155249341004447
4.157384,4.445511905875037,0.115187544077445
4.15978,4.453801743972294,0.114815378636048
4.162172,4.462231351696412,0.1144355718734043
4.1645520000000005,4.472523290540084,0.1140310751013497
4.166948,4.481604524570259,0.1136678803061981
4.16934,4.486029930801543,0.1133732540841074
4.1717200000000005,4.487661840353492,0.113118427937516
4.174116,4.486080944345526,0.1129395212879708
4.176504,4.487712853897474,0.1126879742566033
4.178888000000001,4.487342662703005,0.1124754548877054
4.181284,4.487112241135397,0.1122510243447316
4.183672,4.48567111475429,0.1120610741296813
4.186056000000001,4.487442793933099,0.1117992693241913
4.188452,4.487352141992351,0.1115653317587519
4.19084,4.487401259678464,0.1113184383693933
4.193224000000001,4.487590146991437,0.1110617827779265
4.1956240000000005,4.483914602438436,0.11086738438983
4.198012,4.4841034897514085,0.1106087385725362
4.200392000000001,4.482290276317963,0.1103866696573318
4.202804,4.480197523630798,0.1101869423545458
4.205192,4.481410124302166,0.1099671344014112
4.214740000000001,4.446870138365359,0.1098510383360925
4.2171400000000006,4.438723861610701,0.1098279540957952
4.219524,4.435373182281795,0.1097273017781472
4.221908000000001,4.433093438139526,0.1096020162931456
4.226692,4.419686929108161,0.1095679108142069
4.236244000000001,4.394828789963606,0.1095256387700634
4.241024,4.386542743582088,0.1095095142878069
4.2434080000000005,4.38631042615661,0.1094667381850087
4.245804,4.387149043917772,0.1094008192982654
4.248192,4.392131632798627,0.1092527232550625
4.250572,4.4000474879856775,0.1090586915195271
4.252972,4.406380551306891,0.1088672570898753
4.25536,4.4168575857478,0.108594740359764
4.25774,4.432130217614459,0.1082487932720081
4.260136000000001,4.452477986160591,0.1078077003381408
4.262524000000001,4.471615049893224,0.1073994962910376
4.264904,4.48847047362572,0.1070518681465867
4.267303999999999,4.501973322171441,0.1067854677798146
4.269692000000001,4.51626756665008,0.1065191473327707
4.272072,4.528419940755441,0.1062963902830235
4.274468000000001,4.539501379674164,0.1060921324720879
4.276856,4.548161408965888,0.1059582646593495
4.27924,4.55868376937717,0.1058025769823151
4.281636000000001,4.572139396094647,0.1055966480128196
4.31748,4.601421045612619,0.1055222796718726
4.319868,4.604913390426254,0.105436528200581
4.322252000000001,4.616693677479279,0.1052007256839388
4.324648,4.629964208599521,0.1049131555833613
4.327036,4.638439142294011,0.1046919757799644
4.329420000000001,4.649707572667838,0.1044402103891428
4.331816,4.657902967108608,0.1042408675044468
4.334204,4.670521871922794,0.1039427037130111
4.336588000000001,4.682209611177201,0.1036547691165836
4.338984,4.6951080552451065,0.1033346958173415
4.341372,4.7030711322604,0.1030903585894951
4.343756000000001,4.709963274089056,0.1028679990388073
4.346152,4.7195091429701845,0.1026202361946126
4.34854,4.728775472597595,0.1023967343498127
4.350924000000001,4.738833198157921,0.1021715959799814
4.35332,4.740230894426524,0.1020672368550108
4.3557120000000005,4.743910230695263,0.1019094892415863
4.358092000000001,4.74866050215064,0.1017308555417897
4.360504000000001,4.753410773606019,0.1015534682497111
4.362892,4.759743836927233,0.1013763752134229
4.365272000000001,4.764866195434948,0.1012301916831251
4.367687999999999,4.77185088506222,0.1010661163958184
4.370076000000001,4.774691603569798,0.1009761071620568
4.372472,4.776461386890738,0.1009065052975317
4.374867999999999,4.780093501331235,0.1008164343732082
4.377252,4.780280492786338,0.100746977315366
4.379632000000001,4.784751224987995,0.1005983164931269
4.38204,4.791875684242126,0.10043182641046
4.384424000000001,4.800071078682898,0.1002454691540848
4.386804,4.810268573870085,0.1000323058523565
4.389208,4.827403536856302,0.0997240037556703
4.391596,4.842024542416905,0.0994222283137722
4.393976,4.856273460925169,0.0990906432314187
4.396372,4.864935386074763,0.0988154536486013
4.398759999999999,4.874016620104938,0.0985109171583104
4.40114,4.888684847493783,0.0981442604188527
4.403536000000001,4.903213305255767,0.0977907276079198
4.405924000000001,4.913877331151778,0.0974845935828602
4.408303999999999,4.920676925181818,0.0972262769630641
4.410708,4.925753957719158,0.0969788919267381
4.413096,4.934323335070136,0.0966544610734988
4.415476,4.937026179808724,0.0964085741403053
4.417872000000001,4.937866693427754,0.0961817582198905
4.420260000000001,4.937776041487006,0.0959640566162692
4.42264,4.9368939936133405,0.0957455785808335
4.425044,4.937874276859231,0.095508623594487
4.427432,4.938575020851402,0.0952933019025868
4.429812,4.934480167417819,0.0951333807570123
4.432207999999999,4.9333185802904325,0.0949377962194482
4.434596000000001,4.930015122789769,0.0947795739453928
4.436976,4.919774197490077,0.0947108619894332
4.43938,4.916330970362554,0.0945624926774341
4.441768,4.916193096593563,0.0944089517841492
4.444148,4.925925956929796,0.0941355558425571
4.446543999999999,4.9353792780123085,0.0938813730183731
4.448932000000001,4.942970267975264,0.0936437589580831
4.451312,4.947627991632025,0.093440015737898
4.453708000000001,4.957221082341397,0.0931759461811751
4.4560960000000005,4.970399065663025,0.0928862301673926
4.458476000000001,4.983716818611511,0.0925880911591026
4.46088,4.99447339230614,0.0923556353553315
4.463267999999999,5.008303001933824,0.0920798127699437
4.465648,5.021992841934646,0.0918122441330777
4.468044000000001,5.037405243428166,0.0915379593395301
4.470432000000001,5.0557509112278805,0.0912317444471269
4.472811999999999,5.073025643840959,0.0909450465439613
4.475212000000001,5.085365009401423,0.0907165799999742
4.477596,5.100777410894943,0.0904452047145571
4.479979999999999,5.112325380522489,0.090217451294245
4.482376,5.122662645336537,0.0900156748252491
4.48476,5.135281550150722,0.0897677098434579
4.487156000000001,5.141754383098797,0.0896067434946219
4.489552,5.146644424181035,0.0894447911017989
4.491936000000001,5.142455127090967,0.0893989758802676
4.494316,5.13854536925462,0.0893347210846207
4.49672,5.138779582537968,0.0892131432990646
4.499112,5.143017997314147,0.0890436127663619
4.501492000000001,5.14511454171705,0.0889078958706957
4.503888,5.144976667948059,0.0887578960520418
4.506276,5.144559254925348,0.0886260655289842
4.508660000000001,5.144700920410077,0.0884581459268023
4.511056,5.143631881081308,0.0883158634397767
4.513444,5.144564942498955,0.0881501943129113
4.515828000000001,5.1479194135436,0.0879362932870749
4.518224,5.151273884588245,0.0877245437301868
4.520612,5.153557420446251,0.0875281914539224
4.522992,5.161707488916649,0.087272924265297
4.525388,5.168786622200408,0.0870344399679761
4.527775999999999,5.174655050670667,0.086818992167864
4.530156,5.183596515073982,0.0865657720855012
4.532556,5.193329375410215,0.0863146624188199
4.534943999999999,5.205343875746586,0.086022269458235
4.537324,5.213074635336402,0.0857917991203408
4.539720000000001,5.226671927538609,0.0855020373249994
4.542108000000001,5.242131550860371,0.0852013003413842
4.544492,5.252655807129522,0.0849538308754754
4.546888000000001,5.26504239451823,0.0846977437594987
4.549276000000001,5.277848290787518,0.0844164006975696
4.551656,5.291817670042063,0.0841646956443208
4.554056000000001,5.306857984483244,0.083898768240611
4.556444000000001,5.323341321163404,0.0836483611930837
4.558828,5.338893492283784,0.0834036790523374
4.561232,5.353374728217526,0.0831748960031708
4.563616,5.360359417844798,0.0830506035598291
4.573168000000001,5.349419644410806,0.0830102787268602
4.575564,5.3482561614255495,0.0829794525304468
4.577952,5.348303383253792,0.0829253738518536
4.580332,5.349281770641814,0.0828652840682973
4.582732,5.351982719522531,0.0828019682071372
4.58512,5.36096950989622,0.0826598427035878
4.5875,5.363298371724601,0.0825683560776113
4.589896,5.3646960679932025,0.0824835694868952
4.597064,5.356921878290881,0.0824490406000498
4.599448000000001,5.35282512899943,0.08244455879134
4.601844,5.349799314894618,0.0824255703304794
4.604244,5.34519070892397,0.0824011545666272
4.606628000000001,5.340721872580183,0.0823682751296466
4.609012,5.334530474743698,0.0823383941098916
4.611408000000001,5.334764688027044,0.0822229225161848
4.613796000000001,5.340493346870444,0.0820274860254456
4.616175999999999,5.351436912020176,0.0817701575069689
4.618572,5.370668419409295,0.0814174580035417
4.62096,5.390039696425275,0.0810542374685998
4.623340000000001,5.4024735056422255,0.080758295906332
4.625736,5.407830077433288,0.0805357121073104
4.628124,5.415468289224486,0.0802794779091854
4.630504,5.422315105082768,0.0800224228035569
4.632904,5.426368424261715,0.0797836306610385
4.635292,5.436288276053051,0.0794961353508216
4.637684,5.442995322284472,0.0792488766555671
4.640079999999999,5.453334482956388,0.0789373028096448
4.642468000000001,5.463813413255164,0.0786151275654741
4.644848,5.478203997248158,0.0782120952353161
4.647244000000001,5.494456912360709,0.0778040718283512
4.649632,5.504843294860871,0.0774419929088522
4.652012000000001,5.513367346241475,0.077089569689221
4.654412000000001,5.524312807249075,0.0766957188463962
4.6568000000000005,5.541264570495926,0.0762510702386914
4.659180000000001,5.558076564115918,0.0758198786494561
4.661576,5.572886456989493,0.0754100732944285
4.663964,5.582621213183595,0.0750486011495978
4.666356,5.587932459004283,0.074748026829572
4.668756,5.596596280011747,0.0744041430865342
4.671139999999999,5.611406172885322,0.0740040333645382
4.6735240000000005,5.631151432811508,0.0735641467445071
4.675928000000001,5.647544117550918,0.0731725419568201
4.678312,5.659141204864578,0.072808547177904
4.6806920000000005,5.669387817737878,0.0724724567105572
4.683092,5.673767897998787,0.0721763370973843
4.68548,5.680569387886695,0.071839427303408
4.687860000000001,5.6852290074013245,0.0715286439506979
4.690256,5.691890727662372,0.0712012409893229
4.692644,5.697062203856199,0.0709118406140775
4.695028000000001,5.698369248184054,0.0706471774653025
4.697424,5.706613760310937,0.0703325115224604
4.699812,5.716580833930516,0.0700175203095331
4.702192,5.724917893856017,0.0697466954861469
4.704592,5.725246550795849,0.069536602742005
4.70698,5.722921480683207,0.0693300482548273
4.70936,5.720177101689985,0.0691466514123709
4.711755999999999,5.720645528256679,0.0689294727109234
4.714148,5.720462328517313,0.0687000961054955
4.716528,5.719208193591309,0.0684831822720593
4.718924,5.715812188292029,0.0682894046183893
4.721311999999999,5.712555952619609,0.0680886901957108
4.723696,5.70850832101427,0.0678832808001304
4.726092,5.71111861795424,0.0676481832724367
4.728479999999999,5.714799850080849,0.0674021111322679
4.73086,5.721554118140512,0.0671294881319051
4.733256000000001,5.728028846946456,0.066872682009394
4.735644000000001,5.734503575752401,0.0666164685745572
4.73804,5.738976203811928,0.0663734432776798
4.740436000000001,5.740515565565258,0.0661467738802157
4.74282,5.745127963251645,0.0658970076751774
4.745203999999999,5.74494476351228,0.0656700840636709
4.747604000000001,5.745972268586414,0.0654259264665758
4.749992000000001,5.749281413660684,0.0651548848263622
4.752376,5.756454990600929,0.0648635481580243
4.754772000000001,5.766142524966789,0.0645802315150573
4.757160000000001,5.773036562653313,0.0643036095936196
4.759539999999999,5.778859665153198,0.0640384171958331
4.761936,5.786545098772642,0.0637685649020859
4.764324,5.791157496459029,0.0635215750287854
4.766704000000001,5.79283662783922,0.0632896061791505
4.769108000000001,5.792932967353575,0.0630480814163697
4.771496000000001,5.794240011681429,0.0627890710979806
4.773876,5.794755660076365,0.0625274847639884
4.7762720000000005,5.797692718098299,0.0622333622993164
4.778656,5.805425373545985,0.0619231872209759
4.781040000000001,5.818233165673142,0.0615844778134141
4.783436,5.833043058546716,0.0612369154984844
4.785819999999999,5.853719484032682,0.0608655884906529
4.788204,5.878679650265201,0.0604593942152926
4.7906,5.9022893420573626,0.0600803631688012
4.792987999999999,5.930694631275275,0.0596878160187336
4.795384,5.958820381239465,0.0593123741790451
4.79778,5.977866793031351,0.05898503402762
4.800167999999999,5.999055075196514,0.0586425949517245
4.802552,6.014656364003007,0.0583095821775581
4.804948,6.0353327894889714,0.0579475015458222
4.807332000000001,6.053727574974799,0.0576089784725063
4.809716,6.070260029341069,0.0572747975829521
4.812112000000001,6.090796685200173,0.0569214683508788
4.814500000000001,6.114126837738613,0.056563599325314
4.816879999999999,6.137968846956251,0.0562265613143942
4.819276,6.160600151360389,0.0559058984221798
4.821664,6.177504692778997,0.0556011622393507
4.824044000000001,6.191056659010831,0.0553304836500179
4.82644,6.1987420926302725,0.055082944014095
4.828828,6.197348188077409,0.0548816814329334
4.831208,6.190879146845073,0.0547068087590576
4.833603999999999,6.178683342627206,0.0545457159885666
4.835992000000001,6.164345668036064,0.0544002366933766
4.838372,6.146003791952087,0.0542722243286698
4.840768000000001,6.121655613628859,0.0541702578153673
4.8431560000000005,6.096376269745854,0.05406886653106
4.845536000000001,6.081107429594933,0.053922570674111
4.847936000000001,6.063836488697595,0.0537846555521089
4.85032,6.05042997966623,0.0536350644069413
4.8527000000000005,6.035952535448228,0.0534931933689458
