Time,Force,Position
4.139487999999999,3.505844686903849,0.1560470332278019
4.141884,3.558124040304688,0.155004001785571
4.144272,3.592900135382711,0.1542396835709324
4.146652,3.619577175534319,0.1534881792022903
4.149052,3.640342357103162,0.1528111833347315
4.151436,3.6550086886341377,0.1523118261295176
4.1538200000000005,3.665718040500523,0.1518838741285208
4.156216,3.6672555063959846,0.1517189836183822
4.158604,3.669444598597505,0.1515567521851176
4.160988000000001,3.675730440090476,0.1513208841455187
4.163384,3.683971160501621,0.1510926024801255
4.165772,3.691140945726127,0.1509073931992773
4.168156000000001,3.6967279390847967,0.1507466134267828
4.17772,3.702639797667562,0.1507008615186014
4.180108,3.711392374757904,0.1505040076484303
4.182492000000001,3.7156288936762154,0.1504183314103502
4.189672000000001,3.7214482044603616,0.1503143036934623
4.192063999999999,3.727499832669986,0.1502594558383031
4.194448,3.733691230506471,0.1501896045808066
4.196828000000001,3.739510541290618,0.1500862160534243
4.19922,3.7430954339028712,0.1499999252869467
4.203988,3.747192183194322,0.1499324245023775
4.237464,3.7734914487199855,0.1499201248251448
4.23984,3.7760054061456,0.1498754739523116
4.242244,3.7814526298774096,0.1497453019449654
4.244632,3.788762184728776,0.1495693930058964
4.247012000000001,3.798865236259477,0.1493242621070387
4.249403999999999,3.8089682877901785,0.1490791312081809
4.251788,3.822843223388237,0.1486634387758486
4.254168000000001,3.8369976982400154,0.1482284562896912
4.256571999999999,3.849429611599096,0.1478264998316264
4.258959999999999,3.862792690517956,0.147399601791581
4.261344,3.878018100556373,0.1469261709480601
4.321103999999999,3.831563745513288,0.1468501852451224
4.323488,3.831983054393869,0.1468090604657859
4.325872,3.832122824020729,0.1467954513853297
4.328264,3.837337730327061,0.1466298677429697
4.330652,3.840550535886977,0.1465204396725841
4.333032,3.849909413313003,0.1462204989836539
4.335427999999999,3.8594080603658902,0.145906308999874
4.337815999999999,3.873050678538471,0.1454567991861689
4.340196,3.891908203017384,0.1448412675988202
4.342592000000001,3.916772029735548,0.1440546706322848
4.3449800000000005,3.9405649212670726,0.1433149423896394
4.347359999999999,3.9647771216791785,0.1425330847757295
4.349756,3.992202127651199,0.1416478403079965
4.35214,4.019766903250081,0.1407574239633061
4.35452,4.044398412542767,0.139953146727966
4.356936,4.067586899596478,0.1391529675920396
4.359324,4.085979789224435,0.1384795149210665
4.3617,4.103813600344953,0.1378720743056842
4.364104,4.119645310719053,0.1373255976271092
4.366492,4.134965164413957,0.136764473428332
4.3688720000000005,4.152426888482137,0.1361367448348115
4.371276000000001,4.169097216617399,0.1355207341818992
4.37366,4.186047084006381,0.1348848346412537
4.376043999999999,4.19913251952939,0.1343428607922364
4.378448,4.221437062851566,0.1335582252494842
4.380832000000001,4.23666436874785,0.1329593297860213
4.383216,4.25124004833808,0.1323536301491522
4.385611999999999,4.262742691995252,0.1318307010164003
4.388000000000001,4.268099263786313,0.1314749995889006
4.390376000000001,4.268660238151623,0.1312299568714618
4.392779999999999,4.266707255091319,0.1310158858909923
4.395164,4.266756372777431,0.1307530067170948
4.397544000000001,4.263592684903628,0.1305834833658039
4.399947999999999,4.257495730723631,0.1304816492368685
4.402336000000001,4.251259006916771,0.1303922866485442
4.404716,4.246744844602609,0.1302779078481279
4.40712,4.245955344527561,0.1300895004874106
4.409503999999999,4.245305614079372,0.1298903027090778
4.411888,4.2454472795641,0.1296858712030854
4.414288,4.245961032101167,0.1295132093122024
4.416676,4.2464747846382345,0.1293414813055858
4.419056,4.2485713290411375,0.1291600338488749
4.421460000000001,4.25024856456346,0.1290157290425941
4.426224,4.255278375272558,0.1287730240725647
4.428628000000001,4.261843756019249,0.1285904893750124
4.4310160000000005,4.271202633445276,0.1283600878895954
4.433395999999999,4.286288273856832,0.128021974245471
4.435796000000001,4.307100677253919,0.1275731669110666
4.438184000000001,4.330706577330341,0.1270784578033695
4.440563999999999,4.356826434832377,0.1265576995169837
4.44296,4.380804421961137,0.1260983335961979
4.445344,4.407064049090033,0.1255725706940385
4.44772,4.437188108084903,0.1249713802661872
4.450116,4.473318469319024,0.1242524717851178
4.452504,4.509309060926284,0.1235516765573842
4.454884000000001,4.540364285480932,0.1229501136773067
4.4572840000000005,4.569557178916023,0.1223862074630688
4.514624,4.487119815697157,0.1219508003283464
4.517008,4.480044474129137,0.1219165677033725
4.519388,4.477113103680811,0.1217936215393801
4.521783999999999,4.473250567672706,0.1216845802288621
4.524168,4.476465269090491,0.1214347059274295
4.526548000000001,4.48517441606833,0.1210517909522073
4.5289600000000005,4.499098469352499,0.1205559481092644
4.531344,4.517166493756363,0.1199738393932813
4.533724,4.539378489279922,0.1193045525270667
4.536128000000001,4.564244211855954,0.1186032371910485
4.538516,4.585897128872071,0.1179787460028547
4.540895999999999,4.605687714768632,0.1173830435779709
4.5433,4.628271797344527,0.1167457047275117
4.545687999999999,4.654348224734059,0.1160114476716215
4.548068,4.684289083989564,0.1152137739684251
4.550472,4.717302979178123,0.1143649850344667
4.552855999999999,4.754321075859516,0.113442448141946
4.555236,4.7901284677274125,0.1125544445495488
4.55764,4.818858622169419,0.1118144515812604
4.560028,4.847588776611426,0.11107619100677
4.5624080000000005,4.872174959933738,0.1104351847172581
4.564804,4.891546236949719,0.1099021846917919
4.567188000000001,4.911988449152336,0.1093540008562471
4.569567999999999,4.934292992474511,0.1087870934612834
4.571972,4.955666370236907,0.1082437920726759
4.57436,4.97289577687961,0.1077827406465596
4.576736,4.990125183522314,0.1073295674396053
4.57914,5.007354590165016,0.1068840632016662
4.581528,5.022861435315023,0.1064549466519752
4.583908,5.037856423785832,0.1060097601170523
4.586312,5.055412591510499,0.1054963311387286
4.5887,5.072968759235165,0.1049812288242599
4.591080000000001,5.088662595840274,0.1044882084553937
4.593483999999999,5.103145727631885,0.1040278825748537
4.648420000000001,4.73785135942142,0.103930892174049
4.650823999999999,4.725748103002172,0.1038945141406526
4.653212000000001,4.715786716956199,0.1038186414877004
4.655592,4.707827431656644,0.1037124075380518
4.657996,4.704663743782841,0.103545875998773
4.660380000000001,4.711370790014262,0.1032410285991771
4.66276,4.724735764790991,0.1028559111983512
4.665159999999999,4.742104941060553,0.1024119662758776
4.667544,4.761336448449673,0.1019418334668289
4.669924000000001,4.780288416585072,0.1014926309066918
4.672327999999999,4.7969587447203335,0.101088560410817
4.674712,4.815211864721432,0.1006805559674168
4.677091999999999,4.83197474065531,0.1003201308603433
4.679495999999999,4.846735515842774,0.0999913591168263
4.75834,4.828393639758796,0.0999046713220806
4.760727999999999,4.836681581998184,0.0997655871075764
4.763108,4.849113495357266,0.0995578279489477
4.7655,4.858612142410153,0.0993914380664088
4.767884,4.867039854276401,0.0992448772497856
4.775056,4.879005236926659,0.0991292411834363
4.777436000000001,4.886734100658606,0.0990333854134513
4.779836,4.901959510697023,0.0988055642104109
4.782224,4.9173246903623005,0.0985706227188967
4.784604000000001,4.927242646295768,0.0983829672827837
4.786995999999999,4.934367105549899,0.0982223719071289
4.789383999999999,4.940979708124834,0.0980406332702271
4.79178,4.949594411446186,0.0978308188246853
4.794184,4.964634725887368,0.0975053543686219
4.796572,4.979814809955411,0.0971697905343056
4.798952000000001,4.990571383650039,0.0969207058923212
4.801355999999999,4.999325856598251,0.0966998426346753
4.803743999999999,5.007009394359824,0.0964962709449026
4.806124,5.016555263240953,0.0962753631272883
4.808528,5.019023894696193,0.0961600942848895
4.810911999999999,5.020002282084215,0.096093134621324
4.813292,5.01804740316604,0.0960630151645451
4.815696,5.017442998688226,0.095994896466058
4.818084,5.016326737531214,0.0959072749028403
4.820464,5.019354447493895,0.0957536550303995
4.8324240000000005,5.000175849506627,0.0956393003762022
4.8348,5.001014467267788,0.0955830386367626
4.837208,5.003575646521646,0.0955186039004827
4.839592000000001,5.007207760962143,0.0954369756040991
4.841971999999999,5.007347530589004,0.0954276634506675
4.844376,5.011771040962417,0.09534844227929
4.846760000000001,5.020478292082386,0.0951991838136435
4.849139999999999,5.03253811838913,0.0949892597448332
4.851536,5.047670980628929,0.09473550513299
4.853924,5.058939411002756,0.0945243220489555
4.8563,5.077285078802471,0.0942218024065359
4.858704,5.099123091415822,0.0938554871520994
4.861092,5.124965305522006,0.0934368357455041
4.863472000000001,5.146803318135358,0.0930674986581011
4.865875999999999,5.169432726681627,0.0927017222972061
4.86826,5.192201904854757,0.0923303797120672
4.870640000000001,5.212457125602272,0.0919616418122776
4.873036,5.235785382282844,0.0915530312751693
4.875424,5.261535048590411,0.0910935167909363
4.877804,5.285422383778423,0.0906474073269331
4.880199999999999,5.303722725607763,0.0902495470748593
4.882587999999999,5.318950031504049,0.0898973565533896
4.884968,5.3384610781468895,0.0894843141168756
4.887364000000001,5.355830254416452,0.0891067177570448
4.889748,5.375900379566732,0.0886620174913691
4.892131999999999,5.389824432850903,0.0882999855854869
4.894524,5.4008152198288775,0.0879700004228936
4.896912,5.407662035687159,0.0876954374458634
4.899292,5.415719556358938,0.0873990127730544
4.901687999999999,5.429783379269969,0.0870373525056186
4.904076000000001,5.437189273635691,0.0867352234255669
4.906472,5.4403114272548585,0.0864963197396681
4.908867999999999,5.440360544940972,0.0862936061038846
4.911256000000001,5.448418065612751,0.0860064288586318
4.913636,5.4515402192319184,0.0857670732190533
4.91604,5.453731207291307,0.0855350323124014
4.918424000000001,5.459786627216671,0.085268241420113
4.920808,5.46211738490292,0.0850275636065056
4.923208,5.461375106656115,0.0848226824069721
4.925596,5.462634929155726,0.0845959965421408
4.927976,5.465757082774895,0.0843550405864714
4.93038,5.467948070834284,0.0841202475674992
4.932764,5.464132756654422,0.0839498072514122
4.935148000000001,5.461667916914919,0.0837480206535611
4.937539999999999,5.458643998667976,0.0835805352266103
4.939927999999999,5.455759850047894,0.083403568719713
4.942308,5.454738032547368,0.083214361972807
4.944704000000001,5.457720416539676,0.0829839596689099
4.9470920000000005,5.458421160531846,0.0827919387998103
4.949471999999999,5.454326307098265,0.0826388507524121
4.951868,5.450883079970742,0.0824959189308186
4.954256,5.445717291350522,0.082355981323064
4.9566360000000005,5.446045948290354,0.0821367153891076
4.959040000000001,5.442510173364212,0.0819507718087608
4.961424,5.44726234067746,0.0816710747845701
4.9638040000000005,5.454016608737123,0.0813740486487225
4.966208000000001,5.459699941610149,0.0810916367894648
4.968592,5.466174670416093,0.0808108943860525
4.970975999999999,5.473440795154956,0.080531501756668
4.973372,5.482988559893954,0.080218909629436
4.97576,5.497471691685566,0.0798666927174104
4.978140000000001,5.51581925534315,0.0794881086807544
4.980536,5.537891481239847,0.079089688002603
4.982924,5.557821836763267,0.0787192227522369
4.985308000000001,5.575238234861075,0.0783477724016929
4.987704,5.595727668891936,0.0779457277603018
4.990092,5.6135633758703225,0.0775509394434861
4.992488000000001,5.6295367517291535,0.0771689831000082
4.994879999999999,5.644067105349006,0.0767721108191704
4.997267999999999,5.657386754155362,0.0763945222274665
4.999648,5.669775237401939,0.0760196218329101
5.002052,5.687238857327988,0.0755982896675497
5.004444,5.699487570947705,0.0752358949024845
5.006824000000001,5.706661147887949,0.0749200814432842
5.00922,5.705407012961945,0.074698624547081
5.011603999999999,5.698006806169832,0.0745368454663033
5.013984,5.692608700124134,0.0743580608315322
5.016380000000001,5.689072925197994,0.0741700706525566
5.018768000000001,5.688749955831769,0.0739448316840309
5.021147999999999,5.686005576838546,0.0737611918584206
5.023544,5.678465600419571,0.0736078673411562
5.025932,5.6658504873211255,0.0734996824773284
5.028327999999999,5.651512812729981,0.0733918079742048
5.030732,5.640248174071894,0.0732552953978002
5.033116000000001,5.631777032093142,0.0731058608577769
5.035495999999999,5.620093084554474,0.0729916264680916
5.037904,5.613204734441558,0.0728491171798256
5.040287999999999,5.605105679515143,0.0727258318145094
5.0426720000000005,5.602453848320536,0.0725868607415044
5.045068,5.602875053058986,0.0724205910886079
5.047456,5.60771976817085,0.0722007361815007
5.049836,5.608420512163021,0.0720201316515428
5.052231999999999,5.613916853580942,0.071814005613779
5.054620000000001,5.625139957984395,0.0715774858554354
5.057,5.646653105373652,0.0712526157595665
5.059396,5.676314425375436,0.0708615934961549
5.061784,5.70583597575036,0.0704828459380798
5.064164000000001,5.73950149724498,0.0700748850578939
5.066567999999999,5.769302586873624,0.0696905106434625
5.068955999999999,5.800454150942628,0.069282646641526
5.071336,5.833328276504328,0.0688771202259072
5.073732000000001,5.868623811693025,0.0684345238875107
5.07612,5.901777476508445,0.0680127837025522
5.078504,5.9297162350175325,0.0676374564366479
5.080903999999999,5.954581957593566,0.0672869124197941
5.083291999999999,5.983451881662435,0.0669094104957619
5.085672,6.00510479867855,0.0665913730768332
5.088076,6.027968420508167,0.0662552849478774
5.090459999999999,6.044965509725392,0.0659548542046961
5.09284,6.061822829315757,0.0656638157423631
5.095244,6.075187804092486,0.0654205251616218
5.097632,6.0892044051752725,0.0651885739363899
5.100012,6.100287739951865,0.064974688864434
5.102408,6.112581779541957,0.0647461318764772
5.104796,6.11672764651952,0.0645779581563541
5.107176,6.116589772750529,0.0644503088896679
5.10958,6.113937941555923,0.0643164758338132
5.111968,6.104348642562288,0.0642218542542345
5.114348000000001,6.097273300994268,0.0641336424187116
5.116744,6.090058189799388,0.0640523617688235
5.119132,6.0819119130447294,0.0639734266793959
5.121512,6.074277492969269,0.0639129802973359
5.123907999999999,6.07292891438678,0.063803933222956
5.126296000000001,6.073722206177567,0.063675661822912
5.128676,6.07758853390141,0.0635264170536557
5.1310720000000005,6.080523696065474,0.0633804210022737
5.13346,6.0916070308420665,0.0631820217443868
5.135840000000001,6.10147966080516,0.0629997402972132
5.138243999999999,6.115356492261087,0.0627951294072618
5.140631999999999,6.128302158157236,0.0625934358981853
5.143012,6.142970385546082,0.0623941545891375
5.145404,6.155124655509312,0.0621864323961801
5.147792,6.165276824726126,0.0619895417563694
5.150168,6.170633396517188,0.0618113473775154
5.152576000000001,6.177060903494889,0.0616232701187356
5.15496,6.182836784166531,0.0614232400484635
5.157343999999999,6.188193355957592,0.0612439170820093
5.15974,6.193410158121794,0.061070571874647
5.162128,6.198766729912856,0.0608908696941344
5.1645080000000005,6.2029125968904175,0.0607277259154921
5.166904,6.206918694241121,0.0605716685251261
5.169292,6.210412934912625,0.0603971631661841
5.171684,6.208272960397219,0.0602820132537505
5.174079999999999,6.212930684053978,0.0601408443777835
5.176468000000001,6.218519573270519,0.0599988630004056
5.178848,6.223177296927279,0.0598592495341402
5.181252,6.22196848797165,0.0597442338490323
5.18364,6.2239724845759365,0.0596041353502321
5.18602,6.225045315620445,0.0594665035404589
5.188415999999999,6.225466520358894,0.0593170060564885
5.190804000000001,6.227657508418284,0.0591267985263683
5.193188,6.233712928343647,0.0589234854427599
5.195583999999999,6.23990811789587,0.0587123066575261
5.197971999999999,6.245683998567513,0.0585201861913248
5.200352,6.252391044798933,0.0583264616070666
5.202748000000001,6.258818551776633,0.0581459042430134
5.205136,6.26724815950075,0.0579557002497488
5.20752,6.277679867971284,0.0577552443542002
5.209912,6.288251346068678,0.0575491491141571
5.212295999999999,6.297891658606296,0.0573441813325375
5.214676,6.305949179278075,0.0571281821848382
5.217072000000001,6.311725059949718,0.0569351349893658
5.219460000000001,6.316989083942163,0.0567220241040279
5.221839999999999,6.311311438642744,0.0565590725013815
5.224252000000001,6.301769361477353,0.0564083906267205
5.226640000000001,6.294741241737577,0.0562676602990232
5.229019999999999,6.292508719423552,0.056113646912951
5.231424,6.287063391549611,0.0559839292585702
5.233808000000001,6.278684797369476,0.0558644399809785
5.236187999999999,6.272680390988095,0.0557613873610942
5.238584,6.263183639793078,0.0556952049747396
5.240972,6.254618054157838,0.0556278033020698
5.243367999999999,6.252989936321629,0.0555330695545386
5.245772,6.255505789605111,0.0554143465996987
5.248156000000001,6.259092578075234,0.0552883600347648
5.250535999999999,6.265752402478412,0.0551465698969375
5.25294,6.269618730202255,0.0550077098305497
5.255328,6.275487158672513,0.054861042685258
5.257708,6.280424421582995,0.0547158708944376
5.260103999999999,6.286712158933836,0.0545502910167222
5.262492000000001,6.296724558523789,0.0543817347824723
5.264872,6.311812094793215,0.0541902885346583
5.267276,6.329693127741976,0.0539965203791419
5.269664,6.353999771810568,0.053757961885554
5.272044,6.381099912558495,0.0535172520551027
5.274439999999999,6.401681894387973,0.053281699594606
5.276824,6.418539213978337,0.0530508995976857
5.279203999999999,6.438609339128619,0.0527994913830789
5.2816,6.460402025771597,0.052552661804708
5.283983999999999,6.476607719055902,0.0523093281277337
5.286364,6.49388434752685,0.0520585998562276
5.288768,6.507296544131823,0.0518177790662004
5.291156,6.512420798497408,0.0516221849419664
5.293539999999999,6.516613887303214,0.0514284241619905
5.295936,6.517733940175965,0.0512491844281622
5.29832,6.51592072674252,0.0510784145666277
5.3007040000000005,6.516109614055491,0.0508997291438186
5.303108000000001,6.513365235062268,0.0507293083188832
5.305496000000001,6.510341316815325,0.0505717690991113
5.307875999999999,6.505966924128024,0.0504337471235702
5.310272,6.498659265134526,0.0503035086331663
5.312656,6.4873474046481965,0.0501876840053077
5.315036,6.475383917855806,0.0500592669210873
5.31744,6.463932287742615,0.0499496372510477
5.319828,6.450758096136726,0.0498339249790799
5.322208000000001,6.444661141956727,0.0496908890847457
5.324604,6.438564187776728,0.0495473327203173
5.326987999999999,6.430325363223451,0.0494169389673634
5.329372,6.421434912364116,0.0492737891578324
