Time,Force,Position
3.945728,3.4622355726901115,0.1532459065997038
3.948072,3.462702103398936,0.1531159128149715
3.950416,3.4643793389212583,0.1529294387706118
3.95276,3.467127509630219,0.1526997204458334
3.9551,3.468013349219623,0.1525239627564961
3.957448,3.47411409511536,0.1521562541181018
3.959796,3.4872920784369863,0.1515442812286355
3.962144,3.4996786658256944,0.1509399876132193
3.96448,3.5119254835875413,0.1503582897131594
3.966824,3.5206799565357536,0.1499371401862621
3.969164,3.531156990976662,0.1494805660834156
3.971504,3.542844730231068,0.1489702481610067
3.973844,3.554392699858615,0.1484757101075353
3.976192,3.565800899859301,0.1479873534451837
3.97854,3.5821444669126,0.1473334334334887
3.98088,3.6012815306452333,0.1466059768532435
3.983224,3.621070220683924,0.1458973379343593
3.985572,3.6420696155361134,0.1451293388034316
3.987904,3.668144147067776,0.1442036524789245
3.990248,3.695941240092135,0.1432349939366558
4.161312,3.688448485501404,0.1429467647646842
4.163656,3.6926850044197135,0.1428760488908212
4.166008,3.703067595204137,0.1426122363904634
4.168348,3.7133104163616975,0.1423631355286285
4.1707,3.718338331212928,0.1422846722233974
4.173048,3.725647886064293,0.1421165953811452
4.175392,3.7320262753558815,0.1419705772236174
4.177736,3.744690506140441,0.1416191765024305
4.18008,3.75749450655186,0.1412529255124301
4.182428,3.768575945470583,0.140917391645311
4.184764,3.78394112513586,0.1404335685606478
4.187116,3.795581642562023,0.1400455057704785
4.189464,3.8041491240551313,0.1397543428775027
4.191808,3.8173724333471295,0.1393482974857829
4.194152,3.83059574263913,0.138945792070022
4.196496,3.8471716271179055,0.1384174605863027
4.198844,3.8660291515968193,0.1378146263657062
4.201188,3.8868887768221487,0.137160281874449
4.203532,3.90816771092806,0.1364730300325826
4.20588,3.925582213167996,0.1358971002942776
4.208216,3.9423450891018743,0.1353232373256771
4.21056,3.957757490595395,0.1348141880027175
4.212908,3.97023662578272,0.1343858254514005
4.215244,3.9857887969031007,0.1338787056916912
4.217584,4.003622608023618,0.1332880272217239
4.219928,4.021316649517276,0.1327112894305916
4.222272,4.039802086943851,0.1321248731552725
4.224616,4.055074718810511,0.1316488615805757
4.22696,4.069416185117392,0.1311903809452309
4.229308,4.086830687357329,0.1306513251298348
4.23164,4.101032384037351,0.1302110397238281
4.233984,4.11602547665029,0.1297635039359915
4.236328,4.133300209263367,0.1292396052231083
4.238676,4.147269588517911,0.1287539108232738
4.241012,4.162589442212815,0.128218219500048
4.243356,4.176698591094218,0.1277297472338916
4.245704,4.187734704042567,0.1273283444617347
4.248048,4.193975219565164,0.1270292735879129
4.250392,4.198865260647402,0.1267875466781923
4.252732,4.2037553017296405,0.1265462772666924
4.255076,4.20757440762524,0.1263365634423159
4.25742,4.211533283147699,0.1261145836540813
4.25976,4.216423324229938,0.1258761598675354
4.262104,4.216377998259564,0.1257503003514988
4.264456,4.219265938595385,0.1255621400750468
4.2668,4.223364583744704,0.1253335684585311
4.269144,4.228953472961245,0.1250407755083569
4.271492,4.232680031058227,0.124781467991533
4.273828,4.238688229155347,0.1244531138049668
4.276176,4.243625492065828,0.1241567517218914
4.278528,4.253917430909501,0.1237239171733657
4.280868,4.264349139380036,0.1232796306065695
4.283212,4.273570143037071,0.1228771031333582
4.285556,4.285444873746582,0.1224386918289054
4.287896,4.294246568523035,0.1220741427426937
4.290228,4.302256867366571,0.121712772054801
4.29258,4.307985526209972,0.1214162479312046
4.294916,4.319580717665763,0.1210015883732569
4.297256,4.331175909121552,0.1205869288153092
4.2996,4.3449129709506185,0.1201219561584857
4.301944,4.3586500327796855,0.1196580265199135
4.304284,4.374528964982029,0.1191451653261733
4.30662,4.389616501251455,0.1186392474732719
4.308968,4.40484380714774,0.1181157130211239
4.311312,4.416346450804913,0.1176582689109024
4.313656,4.42491582815589,0.1172576581627366
4.315996,4.431343335133592,0.1169115362817717
4.31834,4.439121316551651,0.1165155807659791
4.32068,4.447550924275768,0.1161326100470166
4.323028,4.45304726569369,0.1158043014593877
4.325376,4.45346847043214,0.115585420905194
4.327724,4.457242250357366,0.1152815944498879
4.330068,4.465439540656006,0.1148717566837194
4.332408,4.474195909462087,0.1144219639997141
4.33476,4.486165083828084,0.1139027195475317
4.337096,4.500136358940496,0.1133476617007349
4.339436,4.520673014799602,0.112643171757534
4.34178,4.536553842859815,0.1120075806528176
4.344128,4.554716310920165,0.1113195712406361
4.346464,4.56980574304746,0.1106947928157812
4.348808,4.587037045548032,0.1100296488515231
4.351164,4.60026414655577,0.1094367183274022
4.3535,4.611489146817091,0.108877098418616
4.355844,4.627789283757885,0.1082292992899223
4.358188,4.645811982191376,0.1075698578444323
4.360528,4.6678388821177,0.1068442122569886
4.362872,4.6900055516708825,0.1061061028019028
4.365216,4.713103386783845,0.1053626162478258
4.367564,4.73554959559075,0.1046188343288926
4.369908,4.761068840330711,0.103819024552725
4.372252,4.789661121003726,0.1029695554170374
4.374596,4.810756855370272,0.1022727137776324
4.37694,4.823704417124289,0.1017201674779456
4.379276,4.834742425930506,0.101253398129791
4.38162,4.843359025109726,0.1008529247816666
4.383968,4.854908890595142,0.1004172824072592
4.386312,4.862314784960864,0.1000589496672274
4.388656,4.871443240819281,0.099689350496031
4.391,4.875217020744508,0.0994198910377522
4.393352,4.876848930296457,0.0991887796379085
4.395684,4.876338969475129,0.0989993110659399
4.398032,4.880484836452692,0.0987600014868348
4.437924,4.842919036411073,0.0985443837247315
4.440276,4.848925338650322,0.0984576949938675
4.442616,4.854931640889573,0.0983712977989987
4.44496,4.854140244956655,0.0983709972992789
4.447304,4.858284216076351,0.098304214638723
4.449652,4.864989366449902,0.0981708159180686
4.452,4.880913624622619,0.0978969369819323
4.454348,4.897908817981976,0.097607119919339
4.456692,4.905173046862968,0.097437095209361
4.45904,4.911506110184182,0.0972766046011498
4.461384,4.915697303132118,0.0971526082864836
4.463724,4.921750827199612,0.0970094707921079
4.46606,4.930737617573301,0.096827080584283
4.468404,4.938653472760351,0.0966658226874376
4.470748,4.945917701641343,0.0964935839027807
4.473092,4.953181930522336,0.0963226488382112
4.475444,4.95909568496297,0.0961893536446241
4.477788,4.9691534105232975,0.0959902853949821
4.480132,4.983355107203319,0.0957270942404173
4.482468,4.999838443883478,0.0954213787918241
4.484808,5.017904572429472,0.0951194420597144
4.487156,5.031035333922855,0.0948853412957859
4.489504,5.04295539060274,0.0946779936063414
4.49184,5.06367524620121,0.0943660244932491
4.49418,5.080390900306845,0.0941109864758775
4.496524,5.092683044039066,0.0939362978493914
4.498868,5.100970986278453,0.0938168992556397
4.501212,5.1020419214650925,0.0937994830964388
4.503552,5.108048223704343,0.0937210865148409
4.5059,5.113123360383816,0.0936508985582099
4.508244,5.120619906690284,0.0935258313013635
4.510584,5.131329258556669,0.0933493709782396
4.512932,5.145251415982971,0.0931227718725205
4.515276,5.158242407849492,0.0929055981760157
4.517616,5.176308536395489,0.0926235436915192
4.51996,5.194234895314623,0.092352532019771
4.522308,5.214582663860755,0.0920292389056921
4.524648,5.230926230914053,0.0917567176371935
4.526992,5.241123726101241,0.0915679402879912
4.52934,5.246897710915016,0.0914567516556334
4.531676,5.250017968676314,0.0913602985299693
4.534016,5.250996356064334,0.0912971101313513
4.53636,5.252254282706076,0.0912155379400297
4.538704,5.247785446362289,0.091190006465512
4.54104,5.241454278898944,0.0911800538531073
4.54338,5.237544521062596,0.0911184095256768
4.545736,5.23242405841275,0.091082515906839
4.548076,5.238012947629289,0.0908790982587282
4.55042,5.247745807965523,0.0906208175955452
4.55276,5.257618437928616,0.0903526084161661
4.5551,5.268282463824627,0.0900871304570436
4.557444,5.274802518600944,0.0898799830715175
4.559788,5.277178602257568,0.0897299606093815
4.562136,5.281417017033748,0.089566241037568
4.564476,5.282722165503733,0.0894344924597508
4.566824,5.282304752481021,0.0893081178281053
4.569164,5.28202710908517,0.0891736875477705
4.571516,5.283751566435735,0.08901640275457
4.573856,5.288037203040159,0.0888005259093496
4.576208,5.292881918152023,0.0885488218537877
4.578556,5.29679546770411,0.0883029572747911
4.5809,5.302850887629472,0.0880242462681909
4.58324,5.31183957386103,0.0877166953592896
4.585584,5.3178949937863935,0.0874363807773983
4.587936,5.326092284085034,0.0871231210091978
4.590272,5.335360509570313,0.0867957199610496
4.59262,5.344768504682451,0.0864597102441935
4.594968,5.344957391995424,0.0862408713309222
4.597304,5.342352782629062,0.0860443378463464
4.599644,5.338677238076061,0.0858623309880514
4.601988,5.333139362403503,0.0856936737015112
4.604332,5.329743357104222,0.0854941868505271
4.606684,5.3274182869915805,0.0852790003070421
4.609024,5.318295518706769,0.0851274245501127
4.611372,5.307170649675542,0.0849976333793809
4.613712,5.294043679897898,0.0848896808760432
4.616052,5.27649319974684,0.0848529894389098
4.6184,5.258011554036002,0.0848226677094892
4.62074,5.240972930564141,0.0848045541153659
4.623088,5.225796638211837,0.0847719805724312
4.625428,5.214484777725506,0.0847034164832224
4.627776,5.202241751679398,0.084641118488145
4.63012,5.186925689700233,0.0846156215122547
4.63246,5.177476160333459,0.084532969767882
4.634816,5.167886861339824,0.0844587209815107
4.637152,5.15787825346561,0.0844103795542264
4.639496,5.147729875964534,0.0843706467956499
4.641836,5.1453103621954055,0.0842623498104667
4.644176,5.138746877306583,0.0842053506175876
4.646508,5.137910155403291,0.0841019231935987
4.648852,5.141869030925752,0.0839595857730438
4.651196,5.146619302381129,0.0838209952369447
4.65354,5.150298638649868,0.0836968899715382
4.65588,5.161706838650554,0.0835061527256739
4.65822,5.172975269024381,0.0833233988942386
4.660564,5.190389771264319,0.0830704500920173
4.662904,5.213158949437448,0.0827432401922887
4.665244,5.23965278984969,0.0823944412958326
4.667592,5.260419867276403,0.0820870021107899
4.669936,5.275972038396784,0.081843194830327
4.67228,5.290593043957385,0.0816085607318535
4.67462,5.308147315824183,0.0813488362924396
4.676964,5.328774623624034,0.0810554092137866
4.679304,5.34726006105061,0.0807932096743261
4.681648,5.363603628103909,0.0805587115574218
4.683988,5.375151597731456,0.0803605439004082
4.686336,5.385768401799224,0.0801678627931236
4.688676,5.389447738067964,0.0800433463005313
4.69102,5.396851736575816,0.0798944538261149
4.69336,5.399599907284777,0.0797762482684192
4.6957,5.398623415754624,0.0796821433366513
4.698044,5.392991096425581,0.0796163871814145
4.700384,5.388709251536896,0.0795189848338974
4.702732,5.381773679595736,0.0794299967439614
4.712104,5.326885925112798,0.0793923678141811
4.714452,5.317668713171502,0.0793385580427975
4.716792,5.316739443469592,0.0791915123032392
4.719144,5.312597368207767,0.0790854627385914
4.721484,5.306453192199524,0.0789984253876713
4.723824,5.299377850631505,0.0789164834140543
4.726164,5.290300408317068,0.0788531608018738
4.728496,5.286437872308963,0.0787307314659731
4.730844,5.289652573726749,0.0785390130768763
4.733184,5.295148915144671,0.0783124974996351
4.735536,5.306651558801844,0.0780308281220859
4.737876,5.315500475406542,0.0777556646428412
4.74022,5.325420327197879,0.0774672000647705
4.742568,5.333058538989078,0.0772129658690132
4.744912,5.342419312272973,0.0769550759027562
4.74726,5.353502647049564,0.0766977168147116
4.749608,5.363375277012659,0.076462018235738
4.751952,5.373527446229472,0.0762100140302173
4.754292,5.390617083245315,0.0758978697474597
4.75664,5.406775554701379,0.0755900041353806
4.758972,5.426938227650277,0.0752470025137142
4.761312,5.440023663173284,0.074976020011656
4.763656,5.448173731643681,0.0747478589045455
4.766004,5.460607540860633,0.0744689251019602
4.76834,5.473041350077583,0.0741905091057826
4.770684,5.484264454481036,0.0739340404065416
4.773032,5.502052939631179,0.0735964444547045
4.775364,5.515837223288489,0.0732951335916201
4.777712,5.525617305452965,0.0730291298836495
4.780052,5.532324351684386,0.0727920165917659
4.7824,5.534235800490055,0.0725843700453919
4.784744,5.541082616348336,0.0723412775246131
4.787088,5.544716626646702,0.0721331823948453
4.789436,5.551563442504984,0.0718885698422881
4.791772,5.562554229482959,0.0716054161499358
4.794112,5.567259174967962,0.0713852175897432
4.796452,5.575968321945799,0.0711341957129824
4.798792,5.584677468923638,0.0708839265825834
4.801128,5.588451248848864,0.0706697963830254
4.803472,5.596368999893782,0.0704178170260409
4.80582,5.601865341311705,0.0702060821452803
4.808156,5.608432617916265,0.0699824621860204
4.810496,5.6155117512000245,0.0697784453179972
4.81284,5.6203092444836455,0.0696065389741012
4.815188,5.623896032953768,0.0694537143898464
4.817528,5.624689324744554,0.0693112564523595
4.819872,5.6198484013484284,0.0692426840304097
4.822212,5.615798873885221,0.069178195187066
4.824548,5.614403073474488,0.0691107767060015
4.826888,5.614869604183311,0.0690359584875425
4.829232,5.617338235638552,0.0689459491657131
4.831568,5.615662895974099,0.0688939387095405
4.833904,5.619202462615979,0.0687930589345879
4.836248,5.618737827765024,0.0687216004737569
4.8386,5.616271092167653,0.068665178944047
4.84094,5.621161133249891,0.0685382670220145
4.84328,5.621395346533238,0.0684286028790269
4.845624,5.623352121309281,0.0683205905143483
4.847964,5.628242162391518,0.0681949427722868
4.8503,5.625915196421008,0.06813060746662
4.852644,5.626149409704354,0.0680215486403142
4.854992,5.62745455817434,0.0679019477539674
4.857336,5.631972512204239,0.0677508190764658
4.85968,5.63677000548786,0.0675846423231895
4.86202,5.645991009144896,0.0673693665490782
4.864364,5.658145279108125,0.0671363156991541
4.866716,5.672581189071494,0.0668745497600277
4.869064,5.689298739034999,0.0665858285310175
4.871404,5.704573266759528,0.0662822860356869
4.873748,5.721989664857335,0.0659602271575839
4.876092,5.7392662933282805,0.0656465808825253
4.878432,5.754820360306529,0.0653290044389603
4.880776,5.768372326538362,0.065027019212584
4.883112,5.788070364636305,0.0646797981051152
4.88546,5.805906071614693,0.0643392684117645
4.8878,5.819877346727106,0.0640192988621408
4.890152,5.836781888145714,0.0636850339481425
4.892496,5.850241306578931,0.0633470328706412
4.89484,5.862909329079228,0.0630054250449621
4.897184,5.882422271579937,0.0625829307564417
4.89952,5.896720307774316,0.0622024169242198
4.901868,5.911158113595553,0.0618172392383573
4.904208,5.921219630871618,0.0614306453172351
4.906552,5.926345781095071,0.0610668428456793
4.908892,5.926536564265914,0.0607296612960509
4.911236,5.927006886690475,0.060378183154477
4.913576,5.924543942808842,0.0600397407287425
4.915924,5.920498207061373,0.0596920137133277
4.918272,5.915521305754125,0.0593457661131863
4.92062,5.903606936647849,0.0590323923184389
4.922956,5.889970006048876,0.058714103724786
4.925296,5.881268442502515,0.0583717577940555
4.927648,5.872706648583015,0.058022004138764
4.929984,5.8602804227975405,0.0576866698207831
4.932332,5.845852096265652,0.0573594649781504
4.934676,5.832634474547258,0.0570151707485229
4.93702,5.816204047268951,0.0566962347712545
4.939364,5.799354311110062,0.056396905924042
4.941704,5.782784114204896,0.0560821873220073
4.944052,5.761510867672593,0.0558224073612784
4.946388,5.743310657073345,0.0555427475925021
4.94874,5.722177180167901,0.0552727603715957
4.951084,5.700484624755019,0.0550296316302627
4.953424,5.688942342701079,0.0547304232302081
4.955768,5.678331226206917,0.0544284504844655
4.958108,5.666509404899258,0.0541413974117021
4.960456,5.655758518778236,0.0538444221252132
4.962796,5.641235748589857,0.0536002693069709
4.96514,5.6273646047075365,0.053369011206317
4.96748,5.6222932597438025,0.0531068538543551
4.969828,5.620015411459404,0.0528416838638772
4.972168,5.615735462428587,0.0525864572342255
4.974512,5.613317844517328,0.0523306626359712
4.976852,5.610341148098627,0.0521032313652566
4.979212,5.609087013172623,0.0518802680102003
4.981552,5.607134030112316,0.0516940052301384
