Time,Force,Position
3.7775760000000007,3.1135624521439467,0.1699877034453799
3.779956,3.1502896344244045,0.1694746705486356
3.78236,3.172120063606279,0.1693533413770962
3.7847440000000008,3.1914384312204085,0.1690353704847204
3.787124,3.2025179742812626,0.1687989419371918
3.794296,3.204986605736503,0.1685658834889974
3.7967,3.2052661449902238,0.168531845689718
3.799084,3.207640332788978,0.168485717340025
3.801464,3.219093858760038,0.1680646659788578
3.803868000000001,3.235110664731373,0.1674181926275848
3.806256,3.246144881821853,0.1670463278104892
3.808636000000001,3.260112365218528,0.1665596968377733
3.8110399999999993,3.278503358988617,0.165865389091938
3.813424,3.301410410930737,0.1650233664102681
3.815804000000001,3.3316270177242244,0.163893642337724
3.818208,3.356116861532181,0.1630077720209061
3.820592,3.376462734220444,0.162309893759693
3.822976,3.397972089893962,0.161639232342994
3.825368,3.4169674881418657,0.1610444319302851
3.827756,3.4411777926961014,0.1602541255339728
3.830136,3.4701836946760896,0.1592966370451324
3.832536,3.4996089055366584,0.1583190274748718
3.83492,3.523027814157976,0.1575778942169705
3.8373,3.546818809831632,0.1568858416114152
3.839696000000001,3.5711688840127285,0.1561246961926959
3.84208,3.592353374462153,0.1554154440115286
3.8444759999999993,3.615400196031134,0.1546663779278547
3.84688,3.644453319839366,0.153726934736284
3.849268,3.6659173495425095,0.1530372276292258
3.851648,3.6848201999917967,0.1524886813142538
3.854048,3.7126626189865295,0.1516456589415454
3.856436,3.7386427068617047,0.1508600736547789
3.858816,3.759407888430549,0.1502689461851842
3.916152,3.803860142727215,0.1501718772707923
3.918548,3.799810615264007,0.1501577862010269
3.920932,3.800696454853412,0.1500006199952295
3.923312,3.8057262655625097,0.1497086332029533
3.925716,3.80982491071183,0.1494372080716041
3.9281,3.813783786234289,0.1491778499368548
3.93048,3.8229575680630825,0.1487453507690234
3.932884000000001,3.8324108891455952,0.14827791784201
3.935272,3.841584670974388,0.1478389614534906
3.937652000000001,3.8533196320570378,0.1472852596452764
3.9400559999999993,3.86454273646049,0.1467073653158813
3.94244,3.8774884023566383,0.1460914000911932
3.944824,3.884707305267257,0.1456404517325203
3.9472200000000006,3.893229460789991,0.1451961432940455
3.949604,3.90426557373834,0.1447060804956119
3.951984,3.91451029075377,0.1442294360915407
3.954376000000001,3.9243829207168632,0.1437190364150196
3.9567640000000006,3.926898774000347,0.1434672771767144
3.95916,3.931416728030248,0.1431585759457756
3.9615560000000007,3.9387281787394826,0.1427784092449821
3.96394,3.9440375287023017,0.1424591262061526
3.966324000000001,3.9462738427320656,0.1422372601104338
3.968724000000001,3.945344573030157,0.1420514570629643
3.9711120000000006,3.9432518203429927,0.1418422379654119
3.973492,3.9454428084023823,0.1414918812163944
3.975892000000001,3.950194975715629,0.1410311406202086
3.9782800000000007,3.949872006349404,0.1407200662779265
3.98066,3.9554155695955697,0.140257869722279
3.983060000000001,3.963380542468732,0.1397043658628301
3.985444,3.9693434145954782,0.1392104684236667
3.9878240000000007,3.9827556112004503,0.1385642471159313
3.990228000000001,3.993514080752948,0.1379597437606362
3.992616000000001,4.004132780678585,0.1373612710715233
3.9949920000000008,4.015031019857942,0.1367363405727911
3.9974,4.026348567917881,0.1360765129716355
3.999784000000001,4.036455411164321,0.1354624320283276
4.002164,4.050147147023014,0.1347880672657844
4.004568,4.062767947695068,0.1341397749030881
4.006956,4.071105007620568,0.1336260321361505
4.009336,4.080233463478987,0.1331074011411697
4.011731999999999,4.090153315270324,0.1325806383546915
4.014120000000001,4.103006433367855,0.1319830643911623
4.0165,4.11902513519706,0.1313651296152685
4.0189,4.132342888145545,0.1308632645791222
4.021287999999999,4.140166195533979,0.1305373325293673
4.023668,4.147570194041832,0.1302541295259126
4.026072,4.157907458855879,0.1298992943805544
4.02846,4.16596308366979,0.1296289389379845
4.030836,4.1730875429239225,0.1293817186977676
4.035628,4.172250821020629,0.1292612959102024
4.0380080000000005,4.171227107662235,0.1292224203466018
4.040412000000001,4.172065725423396,0.1291466940182799
4.042796,4.174766674304114,0.1290351750776643
4.0451760000000005,4.177467623184832,0.1289248544822754
4.047580000000001,4.183381377625465,0.1287250505315274
4.049968000000001,4.185011391319544,0.128645979608698
4.052344000000001,4.191716541693096,0.1284433140839168
4.054744,4.20363659837298,0.1281064457536015
4.057128,4.215975963933444,0.127736916066617
4.059508,4.229526034307408,0.1273284644700638
4.061912,4.240282608002037,0.126972886626578
4.0643,4.247174749830692,0.1266979374050324
4.066676,4.257139927592402,0.1263478608421274
4.0690800000000005,4.272040472406725,0.1258871435015168
4.071468,4.282936815728213,0.1255157616432727
4.073848000000001,4.291691288676425,0.1252027181681302
4.076251999999999,4.296721099385524,0.1249577336743183
4.078640000000001,4.297839256400405,0.1248603588769472
4.081016000000001,4.2997488093482055,0.1247576352298778
4.083412,4.313391427520785,0.1243961528381135
4.085795999999999,4.3247524056932285,0.1241112353600584
4.1168640000000005,4.355429855621932,0.1239838339397147
4.11926,4.36548568532439,0.1238921226324228
4.121644000000001,4.379685486146543,0.1237071848499398
4.124024,4.395747618088251,0.1234899837838432
4.126428,4.417863274097454,0.1230834950324285
4.128816,4.440118699733516,0.1226648902601661
4.131196,4.457438758316966,0.1223527517803506
4.133592000000001,4.47303625540772,0.1220586510200172
4.135980000000001,4.489844457311973,0.121730784134382
4.13836,4.505581724029588,0.1214304214427519
4.1407560000000005,4.525602731493756,0.1210297429846174
4.143144,4.5494881708238974,0.1205554678090888
4.145524000000001,4.569741495713544,0.1201937569143252
4.147916,4.591065755789828,0.1198041507026338
4.150303999999999,4.614531886239389,0.1193612701817729
4.1527,4.642002218181784,0.1188405122250524
4.155104000000001,4.672405816430374,0.1182715811571109
4.157488,4.701366392439988,0.117699436954458
4.159868,4.728744176583766,0.1171358836861945
4.162272000000001,4.755610104048346,0.1165604587316264
4.164656,4.775678333340758,0.1161104787100304
4.167036,4.786155367781666,0.1158239583156388
4.169432,4.792628200729742,0.1156160480995769
4.171816000000001,4.800451508118174,0.1153637233667598
4.174195999999999,4.804642701066111,0.115217970525052
4.1766,4.808973663640908,0.1150617661714601
4.178984000000001,4.8175883669622594,0.1148141004447973
4.181363999999999,4.828344940656889,0.1145201860656376
4.18376,4.83844988804546,0.1142220479648147
4.186144,4.847483900247392,0.1139459118440432
4.188528000000001,4.851582545396711,0.1137550316096428
4.190924,4.857823060919308,0.1135210130048638
4.193308000000001,4.864902194203067,0.1132240041630443
4.195704,4.86904806118063,0.1129728681765762
4.198100000000001,4.872402532225275,0.112724737474788
4.200488000000001,4.872032341030807,0.1125277924814301
4.202868,4.8659353868508095,0.1124156606227115
4.205272,4.861281454909786,0.1123094538387326
4.207656000000001,4.8594210196480985,0.1121663051167313
4.210036,4.853416613266718,0.1121027849595985
4.212432000000001,4.848994998751172,0.1120350727601509
4.2148200000000005,4.849508751288238,0.1118831496018939
4.241116000000001,4.768044087883785,0.1118582980848948
4.2435,4.7634827037413805,0.1117987767807269
4.2458800000000005,4.758269693292918,0.1117303832329085
4.248284000000001,4.75505878359087,0.1116275382237007
4.250672000000001,4.753849974635242,0.1114895853300837
4.253051999999999,4.7522690786272745,0.1113226360963633
4.255448,4.745752815566696,0.1112362059939926
4.257832,4.745382624372227,0.1110364130859283
4.260212,4.746362907618118,0.1107932744275307
4.262616,4.745620629371312,0.1105639514676434
4.265004,4.746089055938006,0.1103017102066108
4.267384000000001,4.746976791385279,0.110007176638893
4.26978,4.746793591645915,0.1097347757346463
4.272168,4.743537355973495,0.1095195355229356
4.274548,4.741352055487713,0.1092799341206191
4.276943999999999,4.741029086121488,0.1090150771686245
4.2793280000000005,4.743639383061458,0.1087024518581864
4.281712,4.742105708881733,0.1084697408513171
4.284108000000001,4.742294596194706,0.1082221159076874
4.2864960000000005,4.742203944253959,0.1079938981889462
4.288892,4.740530500447376,0.1077702378870102
4.310384,4.649801403273381,0.1077469520872909
4.312780000000001,4.643749775063757,0.1077354734513059
4.315168000000001,4.643704449093383,0.1076247132828294
4.317564,4.645661223869426,0.1074814826945601
4.319960000000001,4.650830804205384,0.107275075998549
4.322348000000001,4.658793881220678,0.1070348161012417
4.324728,4.668759058982389,0.1067644858392832
4.327132,4.67886400637096,0.1064864160629148
4.32952,4.690831284879087,0.1061832846568468
4.3319,4.704149037827573,0.105840705248375
4.334304,4.721610761895753,0.105424531696919
4.336688,4.7389327163370725,0.1050199602437198
4.339068,4.756394440405252,0.104603342434641
4.341463999999999,4.77627757410043,0.1041214279243307
4.343852000000001,4.796719786303048,0.1035967909752114
4.346232,4.815811524065308,0.1031170183350444
4.408368,4.5697384024717564,0.1027727634133395
4.410748000000001,4.571647955419556,0.1026896576696172
4.413151999999999,4.578772414673689,0.1025114110980032
4.415540000000001,4.5880387443011,0.1022896984427882
4.41792,4.60168136247368,0.1020364802869313
4.420316000000001,4.61560351989998,0.1017624579403287
4.422704,4.634880353259473,0.1013820691523893
4.425084000000001,4.650944381059052,0.1010667033466251
4.427484000000001,4.66700840885863,0.1007533253714255
4.4298720000000005,4.682932667031347,0.1004554144695546
4.432252000000001,4.695783889271009,0.1002082313919822
4.434648,4.705282536323895,0.1000337042446469
4.437036,4.7163639752426185,0.0998618747701014
4.4394160000000005,4.737455917893426,0.0995395923861349
4.441812,4.752262019051263,0.0993279679688585
4.4442,4.770513243194491,0.099097018725172
4.44658,4.791977272897636,0.0988101982384253
4.448976000000001,4.819447604840031,0.0984370211238262
4.451364000000001,4.846917936782426,0.0980663913986353
4.453744,4.873596872791903,0.0976999700053158
4.45614,4.9044197799210725,0.0972774864807157
4.458528,4.933100816676967,0.096898114464045
4.460924,4.962433479738918,0.096536202842293
4.463324000000001,4.990695207614232,0.0961922616719974
4.465708,5.016303208437071,0.0958694524556751
4.468092,5.041911209259909,0.0955477804650971
4.4704880000000005,5.065097800455749,0.0952842333457857
4.472876,5.092288593144424,0.0949692226953995
4.475256000000001,5.116685889153763,0.0946791688479162
4.477659999999999,5.13721875329713,0.0944335148257276
4.480044,5.1608246533735525,0.0941423303047062
4.482424000000001,5.185920797517193,0.0938038885636977
4.484824000000001,5.209434149794998,0.0934691827341746
4.487208,5.226289573527493,0.0932083476979626
4.489588,5.248639442820042,0.0928497775905121
4.491992000000001,5.2691269809930334,0.0925098112409141
4.4943800000000005,5.285330778419472,0.092241848230249
4.496760000000001,5.298601309539714,0.0920114800627461
4.499156,5.310289048794122,0.0917795328146386
4.501544,5.320114456928973,0.0915638711125253
4.5039240000000005,5.323793793197713,0.091432912118967
4.506328000000001,5.324819402413977,0.091315834550174
4.508716000000001,5.323191284577767,0.0912134849196669
4.511095999999999,5.323565267487973,0.0910870688685743
4.513492,5.3242187896519,0.09094314413372
4.515876,5.323661607002329,0.0908242229022902
4.518260000000001,5.3212420932332005,0.0907201575181409
4.520656,5.31537745647868,0.0906287601536585
4.523044,5.314727726030491,0.0904647715231314
4.525428000000001,5.314077995582302,0.0902996626140406
4.527819999999999,5.310774538081638,0.0901480204614269
4.530208000000001,5.305329210207698,0.090028766947851
4.5326,5.29788178158734,0.0899331693194928
4.537384,5.275350608413295,0.0898659274249991
4.539764000000001,5.262408734232887,0.089861164918779
4.542167999999999,5.251608730425753,0.0898234786924529
4.544556000000001,5.239877561058842,0.0897928170462628
4.546936,5.229589413930907,0.0897737999029753
4.549332000000001,5.222234533109166,0.0897232091603179
4.551716,5.214879652287426,0.0896726459325391
4.554096,5.209666641838962,0.0895891632748379
4.556492,5.20473317064422,0.0894875869107262
4.558879999999999,5.198868533889699,0.0893933034372427
4.561276,5.192584588254596,0.0893254155275259
4.563668000000001,5.188722052246493,0.0892074866881147
4.566056000000001,5.190353961798441,0.0890010590477372
4.568436000000001,5.194499828776005,0.0887918563392382
4.570832,5.194222185380153,0.0886552614670769
4.573216,5.1999508442235545,0.0884522123161833
4.5756120000000005,5.2121976619854005,0.0882041457179692
4.578016000000001,5.225515414933887,0.0879391418707349
4.580404000000001,5.23976433344215,0.0876673264650821
4.582783999999999,5.260299093443386,0.0873153186829269
4.585184000000001,5.288609939004812,0.0868416573680649
4.587572000000001,5.314127287886903,0.0863878052770126
4.589951999999999,5.342857442328909,0.0858971630174882
4.592356,5.3705166615842765,0.0854208857387109
4.594740000000001,5.398595189720225,0.0849219326968671
4.597124,5.425602782669535,0.0844428914230444
4.599528,5.453960850059204,0.0839327779700228
4.601912,5.483110313381791,0.0834278148256507
4.604292,5.507836266330964,0.0829859033320307
4.606688000000001,5.534564320026552,0.0825268794401301
4.609076000000001,5.561292373722142,0.0820678555482294
4.611456,5.584807621857816,0.0816528962815538
4.6138520000000005,5.602828424433437,0.0813210038911891
4.61624,5.614842924769808,0.0810485401094014
4.618620000000001,5.628999295479455,0.0807472373132187
4.621023999999999,5.639151464696268,0.0804898655900817
4.623412000000001,5.642645705367773,0.0802832288697707
4.625792,5.651075313091889,0.0800336365740405
4.628188000000001,5.657363050442728,0.079810828868592
4.630572,5.6561542414871,0.0796854732782933
4.632952,5.649311217344557,0.0796450256649365
4.635348,5.649405661001043,0.0795426292849732
4.637735999999999,5.642562636858501,0.0795013071958358
4.640116,5.639072187902735,0.0794121215976682
4.642512000000001,5.633859177454272,0.0793249831295642
4.644900000000001,5.627854771072891,0.0792348481905298
4.647284,5.622501990997567,0.0791554763790436
4.649676,5.617288980549104,0.0790682125289131
4.652064,5.619572516407111,0.0788914423591198
4.654448,5.619062555585781,0.078729629849779
4.656848000000001,5.619903069204812,0.0785399222724257
4.659236000000001,5.626749885063093,0.0782996502479064
4.661616,5.63722881536187,0.0779988244394103
4.6640120000000005,5.657066623086674,0.0776033888705577
4.6664,5.677463509318918,0.0771807352335145
4.668796,5.694927129244968,0.0767772869235099
4.6711920000000005,5.715324015477211,0.0763527720145879
4.67358,5.7330671746569815,0.075940359593059
4.675960000000001,5.753371513090609,0.0754801992969174
4.678356,5.775305865218316,0.074972686590013
4.680744,5.79980139659988,0.07441888493532
4.683128000000001,5.817219690555556,0.0739307794805799
4.685524,5.836360546003927,0.073438524429008
4.687912,5.8542906966388,0.0729708466782373
4.690292,5.872872473579731,0.0725149389164738
4.692696000000001,5.891454250520662,0.072060455581655
4.69508,5.908033926715177,0.0716221019563365
4.697464000000001,5.923682437349913,0.0711898427743754
4.69986,5.934907437611234,0.070814185202703
4.702248,5.947854999365252,0.0704391335779467
4.7046280000000005,5.959591856305773,0.0700846611968841
4.707032000000001,5.9685352165669565,0.0697456459709783
4.709420000000001,5.977710894253618,0.0694428372509948
4.711799999999999,5.981811435260807,0.0691828182615086
4.714196,5.985352897760556,0.0689533980847894
4.716584,5.993969496939775,0.0686857295349647
4.718967999999999,5.999792599439661,0.068427959106497
4.721364,6.00198358749905,0.0682233257054963
4.723752,6.005897137051137,0.0680208776025506
4.726132000000001,6.014326744775254,0.0678112194468895
4.728532,6.018332842125957,0.0676494615458133
4.73092,6.0264829105963535,0.0674543824108488
4.733300000000001,6.035843683880249,0.067241842359343
4.735691999999999,6.041991651604231,0.0670596762462024
4.738080000000001,6.050281489701487,0.0668584052413921
4.740476,6.057220853358384,0.0666814131812374
4.742871999999999,6.063089281828644,0.0665135485274438
4.745256,6.067886775112265,0.0663558713026659
4.747636000000001,6.073755203582524,0.0661878680440466
4.750032,6.077761300933227,0.0660258607227389
4.752415999999999,6.079905067164374,0.0658692450739147
4.754812,6.077625323022107,0.0657600703144973
4.757207999999999,6.073902556640863,0.0656351552812773
4.759595999999999,6.068037919886342,0.0655300041651796
4.761976,6.060171182385404,0.0654376747230269
4.764372000000001,6.049231408951411,0.0653678678138631
4.7667600000000006,6.039874427383253,0.0653067052446089
4.769140000000001,6.034009790628732,0.0652009086944159
4.771536,6.026934449060712,0.0651124138050786
4.773924,6.0190677115597735,0.0650195742868596
4.7763040000000005,6.017486815551806,0.064875716002794
4.7787,6.011901718051005,0.0647560892032419
4.781088,6.009389656483261,0.0646154169877701
4.78348,6.011580644542649,0.064416138861445
4.785876000000001,6.010838366295845,0.0642313841504187
4.78826,6.0125174976760345,0.0640141726584428
4.790640000000001,6.021832944989557,0.0637274995476914
4.793031999999999,6.032359097116578,0.0634249878488015
4.795420000000001,6.040091752564264,0.0631278140821286
4.797816,6.050757674318144,0.0628182954950558
4.80022,6.06449663200508,0.0624888889777744
4.802604,6.082659100065432,0.0621153735556627
4.804984,6.099610863312282,0.0617584083659272
4.807379999999999,6.117773331372632,0.0613841291217052
4.809768000000001,6.135004633873204,0.0610100171559806
4.812148,6.154377806747053,0.0606189341671983
4.814552,6.174170288501482,0.0602077341602456
4.816936000000001,6.190889734322857,0.0598170365294371
4.819316,6.202534043464759,0.0594551197271106
4.821712000000001,6.2109655470467455,0.059121304315259
4.8241000000000005,6.216184245068816,0.0588164194335553
4.826480000000001,6.225267374956861,0.0584977021035566
4.828876,6.228995828911714,0.0582236071675477
4.831259999999999,6.228952398799208,0.0580039799661196
4.833660000000001,6.23049176055254,0.0577948994741595
4.836060000000001,6.229889251932596,0.0576031478816267
4.8384480000000005,6.219788096259763,0.0574809244418908
4.840828000000001,6.212340667639405,0.0573610816063455
4.843224,6.211690937191217,0.057217415228478
4.845612,6.2073165445039145,0.0570795002078524
4.8479920000000005,6.200520742189615,0.056971439600573
4.850396000000001,6.191722839128899,0.0568725682953577
4.852784000000001,6.184787267187739,0.0567709167511581
4.855163999999999,6.18264729267233,0.0566564311626373
4.857568,6.1847910589034765,0.0565102997565413
4.859952000000001,6.187446681813821,0.0563837917668696
4.862336,6.190614161403363,0.0562764184610969
4.864732000000001,6.196714907299099,0.0561590586435704
4.867116,6.2100326602475855,0.0560005497013618
4.869496000000001,6.223490182822932,0.0558350309862459
4.871900000000001,6.235085374278722,0.0556715357788623
4.874288000000001,6.243747299428317,0.0555186394423325
4.876668,6.2536199293914105,0.0553505560389061
4.8790640000000005,6.264843033794862,0.0551611764676449
4.881452,6.271689849653144,0.0549630529599773
4.883832000000001,6.278536665511425,0.0547645498438615
4.886224,6.293391884355374,0.0545311415723849
4.888611999999999,6.303311736146712,0.0543169906341088
4.890992,6.310438091258713,0.0541081933106432
4.893388000000001,6.320497712676909,0.0538904133820679
4.895776000000001,6.3352603837222405,0.053624487941866
4.898172,6.352816551446908,0.0533574525740655
4.900576,6.368650157678877,0.053086083782626
