Time,Force,Position
6.57488,2.201759176732573,0.1823554232011063
6.577223999999999,2.2824305483462397,0.1796141579342887
6.579564,2.358355440220265,0.1768138990514646
6.581916,2.4251103419812376,0.1745144113691612
6.584263999999999,2.4897252692268026,0.1720112217200838
6.586604,2.5411187830382365,0.1702292127260261
6.588948,2.585809042333988,0.1686970481433386
6.5912880000000005,2.6200713848749437,0.1676099239790946
6.593632,2.648841177713716,0.1666141795052664
6.595972,2.670954937865049,0.1657111032475675
6.598312,2.680870997940647,0.1653680181940906
6.600655999999999,2.691485906150546,0.164926574641704
6.624088,2.707172159324179,0.1648077785537169
6.626431999999999,2.708615181563155,0.1647935891459282
6.628779999999999,2.7131312397351866,0.164631242433818
6.631124,2.7156451971608013,0.1645615770644467
6.633471999999999,2.723094521639028,0.1642604356471569
6.635819999999999,2.731754550930753,0.163880060910666
6.638156,2.7467004217154494,0.163177528741438
6.640499999999999,2.767000968433338,0.1622196564443835
6.642847999999999,2.78488010552423,0.1614105870028101
6.64518,2.8063441352273744,0.1604654358297435
6.703747999999999,2.830271108812151,0.1598856867925737
6.706092,2.831062504745069,0.1598702687268711
6.708432,2.835858102170821,0.1596786360819737
6.71078,2.839210677357597,0.159497385137899
6.71312,2.848197467731286,0.1590053978368634
6.715463999999999,2.8474532936266117,0.1589203794044051
6.717808,2.849642385828132,0.1587120318881437
6.720144,2.854624974708987,0.158398193425069
6.722491999999999,2.863471995455816,0.1579121920072509
6.724843999999999,2.8767425265760584,0.1572073456649089
6.727183999999999,2.888430265830465,0.1565495546453621
6.729528,2.893320306912704,0.1561643564872136
6.731871999999999,2.9019350102340558,0.155640824604168
6.7342200000000005,2.9152055413542985,0.1549432794229155
6.736556,2.9254030365414856,0.154376029326331
6.738904,2.935600531728673,0.1538129702843651
6.741244,2.9455657094903835,0.1532045615437852
6.743587999999999,2.956462052811872,0.1525657910538239
6.745932,2.9681497920662787,0.151912248801276
6.748276000000001,2.9824912583731606,0.1511849017751704
6.75062,3.001768091732654,0.1502590459952776
6.752955999999999,3.0138279180393983,0.1496760788266505
6.7553,3.023234017293668,0.1491777274218367
6.757643999999999,3.035852922107853,0.1485388845503735
6.759995999999999,3.047121352481679,0.1479971262843227
6.76234,3.063976776214175,0.1472618288246535
6.764683999999999,3.0784107903196736,0.1466592702651707
6.767023999999999,3.092705034798312,0.1460798982187958
6.769372000000001,3.107278818530671,0.1454648872789988
6.771711999999999,3.113983968904223,0.1451482022265534
6.77406,3.1176160833447195,0.1449544207053369
6.776396,3.1269749607707453,0.1445630601028189
6.778739999999999,3.1351231333832734,0.1442387064561062
6.781088,3.141408974876244,0.14397620439515
6.783424,3.1547720537951047,0.143441679495149
6.785772,3.166552340848128,0.1429303911582091
6.788112,3.176330527154735,0.142502815451681
6.79046,3.183454986408867,0.142141924909415
6.792804,3.191510611222778,0.1417556766309607
6.7951440000000005,3.1962136608499123,0.1415231514817366
6.797492,3.1991941489843505,0.1413336248990999
6.799828,3.203245572305427,0.1410986201318802
6.816243999999999,3.1900260547291657,0.1410745893757719
6.818584,3.1907249028634665,0.1409896359843567
6.820928,3.193146312490464,0.140865364397861
6.8232680000000006,3.1964988876772398,0.1407173413021361
6.825612,3.199851462864016,0.1405688372536016
6.827956,3.202412642117873,0.1404301615880538
6.834987999999999,3.201249159132617,0.1404000744087496
6.837332,3.205904986931509,0.1402701515740093
6.839672,3.2114919802901785,0.1401175601307885
6.842015999999999,3.218708987342928,0.1398563533881284
6.844364000000001,3.2217820232759835,0.1397458751855853
6.846716000000001,3.227788325515234,0.1395448416892089
6.84906,3.236448354806959,0.139285785080804
6.8514040000000005,3.2544672615247108,0.1386955882787828
6.853748,3.2747678082426,0.1380220108999321
6.856088,3.297070455706906,0.1373020855404376
6.858423999999999,3.324448239850684,0.1364335635285158
6.860771999999999,3.354479751046937,0.1355198779421113
6.863116,3.385582197429829,0.1345831087434496
6.865456,3.416033017506662,0.133643132481595
6.867804,3.449836412770272,0.1325926939857778
6.870148,3.477121649115432,0.1316969348715307
6.872488000000001,3.5069680647144503,0.1306956006520672
6.874824,3.5365349410597484,0.1297152788818422
6.877176,3.565962047778186,0.1287603370995086
6.879519999999999,3.6006040608029566,0.1276550112153356
6.881855999999999,3.6335235123350302,0.1265761855636878
6.884195999999999,3.664580632747548,0.1255650272682094
6.88654,3.692424947600149,0.1246622547254591
6.88888,3.724925090251643,0.1236842341715404
6.891220000000001,3.764222931075305,0.122541135556899
6.893568,3.80151867115255,0.1214734644391391
6.895916,3.83574137529674,0.1204937840454471
6.898251999999999,3.863957777201679,0.1197001767173347
6.900596,3.885376480934451,0.1190628433260352
6.902944,3.900649112801111,0.1185902755979307
6.905276000000001,3.911638003921216,0.1182517150019813
6.907627999999999,3.9206247942949046,0.1179648640046466
6.909967999999999,3.9248159872428414,0.1177788696223262
6.947455999999999,3.8706780944381856,0.1176730430144273
6.9498,3.864906005482281,0.1176495140756207
6.95214,3.85862205984718,0.1176034365028364
6.954488,3.853409049398717,0.117527428954386
6.956832,3.854993737122423,0.1173103810046354
6.959175999999999,3.860163317458381,0.1170426528788011
6.961523999999999,3.863470566674783,0.1168073642578143
6.963868,3.859980117719016,0.1167113751019835
6.966215999999999,3.8586315391365273,0.1165574575803297
6.968564000000001,3.856072255740538,0.116445653738994
6.970908,3.850439936411494,0.1164063300260212
6.973248,3.855469747120592,0.1161569680397154
6.975592000000001,3.862641428202968,0.1158517354397815
6.977943999999999,3.871023814098841,0.1155021928265821
6.9802800000000005,3.879126660740995,0.1151789256123091
6.982628,3.887089737756289,0.1148666550294117
6.984971999999999,3.8981258507046377,0.1144809341715211
6.987311999999999,3.915028496265376,0.1139809585632545
6.989660000000001,3.938868609625144,0.1133404754637045
6.992004,3.959495917424997,0.1127831270614878
6.994356,3.979331829291932,0.1122314302178699
6.996696,3.995582848546613,0.111733991932338
6.999039999999999,4.012485494107352,0.1112462327600954
7.001391999999999,4.026454873361896,0.1108151687204838
7.003728000000001,4.037630755937106,0.1104376532577015
7.006072,4.044150810713423,0.1101336696180919
7.008424,4.052812735863018,0.1097769324424368
7.0107680000000006,4.068412128811642,0.1092846752696686
7.013120000000001,4.079867550640572,0.1088843962876274
7.015464,4.092673446909859,0.1084387973703172
7.017804,4.107341674298704,0.1079617119818794
7.020147999999999,4.1141412683287415,0.1076401942469884
7.022492,4.118798991985504,0.1073710279619283
7.024839999999999,4.127460917135098,0.107026201885514
7.02718,4.137193777471331,0.1066573992937512
7.029524,4.145855702620925,0.1063104251402799
7.031867999999999,4.156379958890076,0.1059425837825399
7.034208,4.160106516987059,0.1056929833831171
7.036543999999999,4.160620269524125,0.1055204791139894
7.038888,4.163275892434471,0.1052982854149373
7.041236,4.167933616091231,0.1050409581908273
7.04358,4.173382735680911,0.1047826604458211
7.045920000000001,4.178971624897449,0.1045129857542091
7.048264,4.190427046726379,0.1041481608856144
7.050611999999999,4.1986696629953935,0.1038544620423468
7.052956,4.2090541496376845,0.1035115554920884
7.055304,4.218227931466476,0.1032059574613609
7.057644,4.2226061158695165,0.1029758861330251
7.059988000000001,4.231919667325169,0.102661731378486
7.062327999999999,4.238020413220906,0.1024197668289755
7.064672,4.246402799116779,0.1021223410300587
7.067019999999999,4.2586496168786265,0.101766855653401
7.069364,4.273038305013752,0.1013661312504208
7.071712,4.283143252402322,0.1010602245747298
7.074048,4.292456803857975,0.1007565328410478
7.076392,4.304051995313765,0.1003946274205373
7.078735999999999,4.311642985276721,0.1001034016661726
7.081076,4.323610263784847,0.0997769219062206
7.08342,4.332644275986779,0.0994952564017575
7.085751999999999,4.345402950427825,0.0991730158596932
7.088099999999999,4.354157423376037,0.0989181864954822
7.090439999999999,4.363703292257166,0.0986644853764418
7.092784,4.372317995578517,0.0984216444633717
7.095124,4.375066166287478,0.0982678726403059
7.097467999999999,4.378885272183078,0.0980907013534622
7.099816000000001,4.38149367326518,0.0979465467000222
7.102152,4.383310678414362,0.0978020149437313
7.1045,4.387921180242881,0.0976253109783442
7.106852,4.391460746884759,0.0974719860004949
7.109192,4.393929378339999,0.0973392480465162
7.142004,4.368512160688002,0.0972747104270394
7.144347999999999,4.367069138449026,0.097262876271782
7.146696,4.367488447329607,0.0972299852328109
7.149028,4.368699152143106,0.0971974712966905
7.151372,4.36711636027727,0.0971964824931559
7.1537120000000005,4.364881942105376,0.0971839260255983
7.156056,4.367722660612954,0.0970872812330865
7.158396,4.369771983187614,0.0969897125576668
7.1607400000000005,4.372100845015995,0.0968697168414075
7.163088,4.37163621016504,0.0967812206200819
7.165428,4.367446913074972,0.0967342995015023
7.167776,4.364328551171543,0.0966661041377725
7.170116,4.357205987775281,0.0966603050026012
7.172456,4.353016690685212,0.0966130370026049
7.174799999999999,4.354693926207535,0.0964836528910581
7.177147999999999,4.355439996170079,0.0963646020257369
7.179492,4.360981663558375,0.0961819072374569
7.181827999999999,4.369736136506587,0.0959367003923285
7.184172,4.37741967426816,0.0957121807732802
7.186515999999999,4.384823672776013,0.0955134860349908
7.188867999999999,4.397302807963337,0.0952350164495737
7.191203999999999,4.41192381352394,0.0949212222465089
7.193555999999999,4.427755523898041,0.0945808134925543
7.1959040000000005,4.4466602702051965,0.0941958371804385
7.198248,4.467427347631909,0.0937934938335345
7.200588,4.488985820991539,0.0933953833419677
7.202935999999999,4.506679862485196,0.09304772302989
7.205283999999999,4.526515774352131,0.0926627087684454
7.207623999999999,4.549005413271539,0.0922630140360829
7.209972,4.575639023310642,0.0918020475343708
7.212324000000001,4.609210101148775,0.0912566702106675
7.214663999999999,4.6386372078672125,0.0907770405290404
7.217008,4.676212487198178,0.0901880394797746
7.219355999999999,4.7109942698498095,0.0896280202255607
7.221696,4.740700915821968,0.0891419526272177
7.224036,4.772689201794264,0.0886151729549599
7.226379999999999,4.807890293326476,0.0880420504169707
7.228731999999999,4.844022550418465,0.0874730375198845
7.231068,4.881225742697093,0.0868857037618163
7.233411999999999,4.91270217199019,0.0863541044018428
7.235759999999999,4.938963694976956,0.0859026901564262
7.238096,4.958939376470751,0.0855458325687355
7.240435999999999,4.975842022031489,0.0852327154820077
7.282643999999999,4.839950447279314,0.0851524517048982
7.284988,4.833107423136771,0.0851105520068904
7.287328,4.829616974181005,0.085011875270915
7.289671999999999,4.827849086717935,0.084909004499782
7.292016,4.828362839255001,0.0847648702356168
7.294352,4.828224965486011,0.0846079308726802
7.296688,4.833581537277072,0.0843626951288219
7.299035999999999,4.839357417948714,0.0840901659457652
7.301387999999999,4.844993528993497,0.0838263017684862
7.303736000000001,4.855984315971472,0.0834849390011525
7.30608,4.874052340375336,0.083058859744224
7.308424,4.896404105525755,0.0825739113965728
7.310767999999999,4.916102143623697,0.0820960402258245
7.313115999999999,4.934729246535002,0.0816333326092481
7.315455999999999,4.94576725534122,0.0812326428871606
7.317804000000001,4.952940832281464,0.080865431200641
7.320148,4.961464883662068,0.0804632195674133
7.322488,4.970128704669532,0.0800483193934573
7.32484,4.978652756050136,0.0796436878276405
7.327176,4.981822131497547,0.0793179688615926
7.329516,4.976983103959291,0.0790807367336585
7.331859999999999,4.972004306794174,0.0788528024938718
7.334208,4.962462229628783,0.0787058695902537
7.336551999999999,4.95427062690375,0.0785245501850172
7.338896,4.947010189738497,0.078337022313984
7.341244,4.946826989999131,0.0780720228914434
7.343584,4.942360049513214,0.0778678065355046
7.345928000000001,4.935471699400296,0.0777110145335733
7.348272,4.930445680406936,0.0775426504409424
7.350607999999999,4.918202654360826,0.0774593641880301
7.352943999999999,4.9039575275683,0.0773952702020107
7.355288,4.884497494469443,0.0773936550185306
7.35764,4.870903993982974,0.0773403052199356
7.35998,4.858521198310005,0.0772630891891838
7.362323999999999,4.850934000062788,0.0771493785913476
7.364668,4.847490772935264,0.0769864169109002
7.367008,4.847120581740796,0.0767906209348462
7.369344,4.851545987972081,0.0765608510748587
7.371687999999999,4.855971394203364,0.0763313701400329
7.374027999999999,4.866403102673898,0.0760447676213865
7.376367999999999,4.878697142263987,0.0757432641664094
7.378712,4.892201886667577,0.0754204453742396
7.381052,4.910130141444581,0.0750321334332448
7.383395999999999,4.926707921781226,0.0746782079938684
7.385736,4.942074997304374,0.0743489167707123
7.388076,4.951156231334549,0.0740979054725805
7.390428,4.963450270924639,0.0738073289122226
7.392764,4.979096885701505,0.0734669871076928
7.395108,4.993952104545453,0.0731243608862813
7.397451999999999,5.012951294509096,0.0727333063789279
7.399792,5.03060001003238,0.0723733167981479
7.402127999999999,5.052392696675357,0.0719690678315011
7.404475999999999,5.067247915519305,0.0716246530365262
7.406824,5.08396546548281,0.0712741737243231
7.409167999999999,5.100822785073175,0.070918444815679
7.411512,5.118331730969599,0.0705798348124323
7.413855999999999,5.1295548353730505,0.0703113318252104
7.4162,5.137984443097167,0.0700579340457139
7.418536,5.149487086754339,0.0697778554534028
7.420883999999999,5.155402737052843,0.0695223769698156
7.423228,5.167604228844317,0.0692028419135105
7.425568,5.17938641175521,0.0689108545324156
7.427911999999999,5.188235328359909,0.0686402701000727
7.430256,5.196432618658548,0.068356387342208
7.432603999999999,5.205049217837769,0.0680479145608943
7.434936,5.21366581701699,0.0677382124268196
7.437284,5.220280315449793,0.067446283353215
7.439632,5.226615274628876,0.0671728801889828
7.441976,5.233741629740877,0.066905451135683
7.444319999999999,5.240588445599159,0.0666549783958179
7.446667999999999,5.252789937390633,0.0663489522406757
7.449016,5.264711889928385,0.0660627584828621
7.451359999999999,5.280498274332112,0.0657534895211955
7.453704,5.2934911620565055,0.06545555931413
7.456052,5.305133575340538,0.065186601399984
7.458387999999999,5.313051326385458,0.0649302736033947
7.460732,5.32604421410985,0.0646340140152215
7.46308,5.3408994329537975,0.0643341207728563
7.465415999999999,5.352541846237831,0.0640697469379614
7.467751999999999,5.367769152134117,0.0638017116264219
7.470096,5.37806109097779,0.0635667687009674
7.472448,5.388772338702045,0.0633094976239643
7.474791999999999,5.400135212732358,0.063065459511833
7.477136,5.41028738194917,0.0628390991073278
7.479483999999999,5.416016040792569,0.0626620889771741
7.481828,5.422024238889689,0.0624685247080758
7.484168,5.428032436986809,0.0622755267978977
7.486516,5.43404063508393,0.0620835389560876
7.488856,5.44004883318105,0.06189255124311
7.491192,5.453274038330919,0.0616487926198284
7.493539999999999,5.4604929412415375,0.0614444128682437
7.49588,5.462916246726405,0.0612590001508793
7.498224,5.468552357771187,0.0610451430572909
7.500567999999999,5.474700325495166,0.0608521689892505
7.502912,5.479637588405648,0.0606763641810402
7.505252,5.4873683479954645,0.0604938955117469
7.507588,5.493097006838863,0.0603246044856696
7.509936,5.494821464189429,0.0601794800148099
7.512283999999999,5.496825460793716,0.0600189955758877
7.514628,5.502833658890835,0.0598372140068017
7.516971999999999,5.512706288853929,0.0596414773706157
7.519311999999999,5.521368214003523,0.0594638301146729
7.521656,5.531240843966617,0.0592698997908962
7.523999999999999,5.545117675422544,0.0590540397641184
7.526348,5.56621151393122,0.0587875782537006
7.528691999999999,5.587817209119093,0.058541883739931
7.531036,5.60714126430683,0.0583219773460781
7.533379999999999,5.625673923561649,0.0580976264252766
7.535724,5.644765661323908,0.0578458643333325
7.538064,5.652915729794304,0.0576517013835365
7.5404,5.661857194197618,0.0574625878868342
7.542752,5.672660989720491,0.0572689344752778
7.545092,5.681043375616365,0.0571103892090788
7.547435999999999,5.690916005579457,0.0569211140669347
7.54978,5.706562620356325,0.0566671419131529
7.552123999999999,5.722349004760052,0.0564074956071027
7.554475999999999,5.740277259537056,0.0561324885557956
7.556824000000001,5.761418319873974,0.055831932682537
7.559168,5.783630315397533,0.0555250620140529
7.561515999999999,5.796902742375645,0.055259520042686
7.563851999999999,5.80817306860734,0.0550064108659342
7.566196,5.817581063719478,0.0547550596599899
7.568548,5.827128828458475,0.0544982420060475
7.570883999999999,5.834954031704777,0.0542379649568414
7.573228,5.843710400510858,0.0539806952979189
7.575571999999999,5.854888178943935,0.0536947803522224
7.577920000000001,5.869278762936927,0.0533849342365241
7.580259999999999,5.885671447676338,0.0530687150470867
7.582599999999999,5.900434118721669,0.0527899257949404
7.584951999999999,5.917990286446334,0.0525065938340469
7.587299999999999,5.936757158984498,0.052208545824678
