Time,Force,Position
8.49646,3.4380067852047893,0.1679997341456511
8.498848,3.4578408012138544,0.1673407493667781
8.501228,3.482330645021811,0.1665324854438366
8.503628,3.508543050322464,0.1656957299672471
8.506016,3.534615685996257,0.1648874155150117
8.508396,3.5609206390955275,0.1641225713701324
8.510792,3.58494395219466,0.1634620790003897
8.513184,3.606825394920516,0.1628736425330701
8.515564,3.6294982335792896,0.1622732465161607
8.517968000000002,3.657525748171256,0.1614457966142464
8.520356000000001,3.6887660683231385,0.1604834704300705
8.522736,3.72000638847502,0.1595346416545511
8.525132000000001,3.752829500492739,0.1585681423845299
8.52752,3.781648411017625,0.1577676876451605
8.529904,3.809815695236451,0.156977545878332
8.532300000000001,3.8365399572163024,0.1562150626585586
8.534688000000001,3.8624728232632353,0.1554775409414149
8.537068,3.8854724230039728,0.1548404521924924
8.539468000000001,3.9094031883044886,0.1541797979239187
8.541852,3.933845810284202,0.1535602262446419
8.544236,3.953632604465025,0.1530749955317625
8.546632,3.970486132339651,0.1526909590198134
8.54902,3.9846859331618023,0.1523712756462187
8.5514,3.9935782798790056,0.152169888152662
8.5538,3.9993975906631527,0.1520687174942131
8.556184,4.010711347007352,0.1517684821416363
8.558584000000002,4.02430674335169,0.1513784811135284
8.560979999999999,4.046329851562275,0.1507061564697697
8.563367999999999,4.071425995705916,0.1499506738316734
8.565748000000001,4.092378168729863,0.1493353101589341
8.568143999999998,4.11319057212695,0.1487442599324234
8.570531999999998,4.132512731456817,0.1482295214857044
8.572916000000001,4.150112329293988,0.1477499121315051
8.575311999999998,4.16678076157138,0.147289351854668
8.577699999999998,4.182378258662135,0.1468669482824182
8.58008,4.19648551168567,0.1465211284681275
8.582476000000002,4.209382059895706,0.146225149648021
8.584864000000001,4.225072104785077,0.1458644073316373
8.587248,4.243415876726924,0.1454591230424009
8.589644000000002,4.258314525683376,0.1451204662814499
8.592032000000001,4.273073405012969,0.1447900014316432
8.594416,4.286621579529063,0.1445070319156227
8.59682,4.303103020351354,0.1441521934237564
8.599207999999999,4.32596285046523,0.1436645434798121
8.601588000000001,4.355620378751276,0.1430116456089785
8.603983999999999,4.381273705544489,0.1424855560894642
8.606371999999999,4.408789363457258,0.1419305866041476
8.608752,4.429739640623335,0.1415873593754816
8.611151999999999,4.443892219617244,0.1414047968278934
8.613536000000002,4.459115733797791,0.1411893673129106
8.615920000000001,4.47340808241856,0.140996360681725
8.618319999999999,4.487328343986992,0.1407726421302187
8.620707999999999,4.504321641488479,0.140472174649018
8.623092000000002,4.526390075669439,0.1400469178321201
8.625487999999999,4.5483187402235385,0.1396328016853634
8.62788,4.5743913758973305,0.1391154470997841
8.630263999999999,4.601674716384622,0.1385582170524868
8.685228,4.593345239890599,0.1382509903462164
8.687612,4.59050641724089,0.1381906500589441
8.690008,4.5891578386584015,0.1380686909711034
8.692392,4.589671591195469,0.1379123456030012
8.694771999999999,4.590697200411733,0.1377723420724748
8.697168,4.593073284068356,0.1375812906553766
8.699556,4.604528705897286,0.1371784739307037
8.701936000000002,4.618405537353213,0.1366960340103213
8.704331999999999,4.63921983660817,0.136062792054045
8.706719999999999,4.663898567729099,0.1353486941485922
8.709100000000001,4.689368694782946,0.1346317955970132
8.711504,4.721916059262682,0.1337620856168474
8.713892,4.747106647062809,0.1330814532164795
8.716271999999998,4.768712342250684,0.1324478472599005
8.718676,4.782961260758948,0.1319919128497363
8.721064,4.795208078520796,0.1315856307391287
8.723443999999999,4.808525831469282,0.1311510387582297
8.725848000000001,4.820493109977409,0.1307688595939957
8.764080000000002,4.746668554222025,0.1304430007364717
8.76646,4.746018823773836,0.1302672004508112
8.768856000000001,4.743366992579229,0.1301329180106055
8.771244000000001,4.741366787690682,0.1300048939815497
8.773624,4.737783790936297,0.1298860343419342
8.77602,4.733781485301333,0.1297995842056999
8.778408,4.73606502115934,0.1295632353443706
8.780788,4.741049505898064,0.1292318721102469
8.783184,4.74631352989051,0.128877451348851
8.785572,4.749854992390257,0.1285433086909499
8.787951999999999,4.75111481488987,0.1282748429889401
8.790356000000001,4.7530262636955385,0.1280136390341623
8.792744,4.752283985448733,0.127786460123904
8.795124,4.754474973508121,0.1275031857121425
8.797528000000002,4.756386422313791,0.1272406580145602
8.799916000000001,4.758297871119459,0.1269758180808279
8.802296,4.763142586231323,0.1266549403968976
8.804692000000001,4.769337775783547,0.1262857083799701
8.807080000000001,4.780468332388383,0.1258109093746853
8.809464,4.793600989739634,0.1252977752656361
8.811860000000001,4.79765430891858,0.1249808508324717
8.814248000000001,4.796492721791195,0.1247865170007305
8.816632,4.7976127746639445,0.12452941295131
8.819028000000001,4.795287704551303,0.1243097299539142
8.821416000000001,4.796175439998576,0.1240125715022602
8.823796,4.805490887312097,0.1235269322874604
8.826196000000001,4.80907957164009,0.1231404500958826
8.82858,4.810246846341085,0.1228274341829039
8.830964,4.8132764521616345,0.1224867084969287
8.83336,4.819938172422682,0.1220431125343572
8.835748,4.824085935258114,0.1216178837433227
8.838128,4.824509035854432,0.1212474445981671
8.840532000000001,4.831078208316862,0.1207520152782261
8.842920000000001,4.835505510406015,0.1203083902880799
8.8453,4.842354222122165,0.1197966039572651
8.847696000000001,4.856419940891065,0.1191442583596951
8.850084,4.869694263727048,0.1185029335161075
8.852464,4.885901852869224,0.1178208542537386
8.85486,4.905322247571316,0.1170784980593493
8.857248,4.919015879287878,0.1164198381639044
8.859627999999999,4.938064186937632,0.1156438295636973
8.862032000000001,4.954039458654332,0.114921908086885
8.86442,4.97094589593081,0.1141923427158437
8.8668,4.992647930633039,0.1133908698449037
8.869204000000002,5.014210195708409,0.1126081643851033
8.871592000000001,5.029766158544527,0.111943461408691
8.873972,5.04918655324662,0.1112209870749798
8.876368000000001,5.069817652762211,0.1104712407678257
8.878756000000001,5.0884466515313855,0.1097563695694194
8.881136,5.102372600673426,0.1091586973719479
8.883532,5.121094147241217,0.1084949390076732
8.88592,5.147544557540955,0.1077267520639154
8.888304,5.167709126347722,0.1070778581400552
8.8907,5.187082299221571,0.1064304637103276
8.893088,5.208178033588116,0.1057810820730345
8.895468,5.222196530528772,0.1052519090273792
8.897864,5.232582913028933,0.1048108376514313
8.900252,5.236823223662983,0.1044714682817209
9.022128,5.347943519495612,0.1044435594214773
9.024508,5.349853072443412,0.1043723194894406
9.026908,5.349248667965597,0.1043111743051793
9.029292,5.348644263487782,0.1042498528529475
9.031676,5.353114995689439,0.104114941695607
9.034072,5.360798533451012,0.1039246909622362
9.036456,5.368901380093167,0.1037064017461453
9.03884,5.371789320428988,0.1035715674710251
9.041236,5.370393520018255,0.1035102038145942
9.043624,5.370487963674742,0.1034038516673564
9.046003999999998,5.3693717025177286,0.1033245936655007
9.048408,5.373610117293909,0.1031534404367362
9.050796,5.380269941697086,0.1029286363971796
9.053176,5.389723262779599,0.1026723464675574
9.055572,5.406905447594058,0.1023196958807718
9.05796,5.42888322983427,0.1019112847978336
9.060339999999998,5.4476482065145655,0.1015647351870141
9.06274,5.468275514314419,0.1011994259737578
9.065128,5.4830362895018805,0.1009124811315142
9.067507999999998,5.501521726928456,0.1005913422918532
9.069912,5.518005063608615,0.1002997117441808
9.0723,5.527271393236024,0.1001186289698863
9.07468,5.537608658050071,0.0999204214445759
9.077076,5.550459880289734,0.0997141332622593
9.07946,5.563311102529397,0.0995099125414517
9.08184,5.575370928836141,0.099306828318443
9.084244,5.590364021449081,0.0990714754642237
9.086632,5.610432250741493,0.0987693198891788
9.089012,5.634504681526738,0.0984167691048382
9.091408,5.655643846005788,0.0980981264379067
9.093796,5.678785111231253,0.097754756792903
9.096176000000002,5.70192637645672,0.0974166915018847
9.09858,5.7193408786966575,0.097135393932728
9.100968,5.741970287242927,0.0967832065268143
9.103348,5.760875033550082,0.0964654178347921
9.105744,5.776055117618126,0.0961812845290897
9.108132,5.790443805753251,0.0958976300745396
9.110511999999998,5.8021787668359,0.0956287357399482
9.112908,5.816846994224746,0.0953296593349789
9.115296,5.826067997881781,0.095069323604305
9.117676,5.836359936725456,0.0947942793467149
9.12008,5.8418562781433785,0.0945631435296016
9.122468,5.847212849934441,0.0943406985344804
9.124847999999998,5.851405938740247,0.0940935097783469
9.127248,5.860394624971804,0.0938051154592077
9.129632,5.869243541576502,0.0935254105396108
9.132015999999998,5.876090357434784,0.0932699101336847
9.134412,5.879212511053951,0.0930443007830607
9.1368,5.880472333553562,0.0928338170368597
9.13918,5.885456818292286,0.0925952826499231
9.14158,5.887787575978535,0.0923697773731263
9.143968,5.885974362545091,0.0921963309708434
9.146348,5.889748142470316,0.0919802667785366
9.148744,5.888446785716072,0.0918240854937058
9.151132,5.889007760081381,0.0916541716189943
9.153512,5.89049990000647,0.0914771986105342
9.155907999999998,5.888127608065584,0.0913349053732481
9.158295999999998,5.888548812804033,0.0911715819694037
9.160692,5.885757211982569,0.0910532597177698
9.163088,5.889204230825831,0.0909029884418824
9.165476,5.891440544855594,0.0907758614700303
9.16786,5.903687362617441,0.0905414752058817
9.170256,5.916725576312207,0.0903089888267997
9.17264,5.926923071499394,0.0901448700124534
9.175019999999998,5.929251933327775,0.0900595007208637
9.17742,5.9323721910890725,0.0899755971584588
9.179808,5.934421513663732,0.0899060621431492
9.182187999999998,5.937402001798171,0.0898298822262946
9.184584,5.942244821052166,0.0897410556829761
9.186972,5.945085539559745,0.0896734577731302
9.189355999999998,5.954304647358911,0.0895695262811628
9.191752,5.965945164785075,0.0894214576663589
9.19414,5.976654516651462,0.0892811239791443
9.196523999999998,5.993370170757098,0.0890823886499734
9.19892,6.010225594489594,0.0888777312961542
9.201308,6.028012183781868,0.0886679830801287
9.203688,6.050873909753615,0.0884040517231879
9.206088,6.074666801285139,0.0881366617716611
9.208476,6.100741332816802,0.0878347559997117
9.210872,6.121228870989794,0.0875702245980715
9.213272000000002,6.141856178789646,0.0872984375332101
9.215660000000002,6.152333213230555,0.0871319483842883
9.21804,6.162158621365403,0.0869569564729657
9.220448,6.178549410246946,0.086695273493403
9.222832,6.194940199128487,0.0864313718220632
9.225216,6.211470757636889,0.0861613127555722
9.227612,6.230143186518567,0.0858650367005347
9.23,6.246953284280689,0.0855798132258108
9.23238,6.262971986109893,0.0852954323477713
9.234775999999998,6.2803411623794565,0.0849842748446077
9.237163999999998,6.2879793741706544,0.0847523867276343
9.239548,6.29813154338747,0.0845203496618021
9.241943999999998,6.306281611857867,0.0843070855888659
9.244331999999998,6.305352342155956,0.0841813468458963
9.246712,6.301210266894132,0.0840943288725632
9.249108,6.2972079612591685,0.0840000367949571
9.251499999999998,6.291435872303265,0.0839554774846591
9.25388,6.281659581854527,0.0839475188170602
9.256276000000002,6.272814456965568,0.0839335192656654
9.258664,6.267973533569441,0.0838833162353136
9.261044,6.264994941292873,0.0838225042034839
9.263444000000002,6.270955917561748,0.0836846906409242
9.265832,6.275706189017127,0.0835667104421587
9.268212,6.274310388606394,0.0835098377156844
9.270612000000002,6.274916688942077,0.083435059229976
9.282548,6.250475962820234,0.0834098016899023
9.284944,6.251314580581395,0.0833659705418152
9.287328,6.248428536103443,0.0833429478972083
9.289712,6.247544592371908,0.0833023365395014
9.292108,6.250013223827149,0.0832164664774255
9.294496,6.2586279271485,0.0830707589220629
9.29688,6.266031925656353,0.0829453055299528
9.299283999999998,6.277068038604701,0.082761822264423
9.301671999999998,6.29438999304602,0.0825132550623948
9.304056,6.308638911554286,0.0822950963069093
9.306451999999998,6.317952463009938,0.0821162491750881
9.308844,6.323401582599617,0.0819646063609974
9.311224,6.323915335136684,0.0818527287973261
9.313624,6.327362353979946,0.0817193047579784
9.316007999999998,6.3346738046891815,0.0815593741467919
9.318388,6.344778752077752,0.08138614695638
9.320788,6.360098605772656,0.0811604881294904
9.323172,6.379702200214114,0.0808888021250542
9.325552,6.39930579465557,0.0806187373303091
9.327948,6.420771720216584,0.0803381248757554
9.330336,6.442656954658179,0.0800377685216183
9.332716,6.46505404577897,0.0797582233439114
9.335120000000002,6.490104863952237,0.0794728290681203
9.337508,6.515295451752365,0.0791826369263165
9.339892,6.542208601045188,0.0788914213440339
9.342287999999998,6.567119649591595,0.0786210059335095
9.34468,6.596314438884555,0.0783097677589827
9.34706,6.623646897057959,0.078011462993915
9.34946,6.646975153738529,0.0777469949685569
9.351848,6.671374345605738,0.0774715829496039
9.354228,6.700708904525558,0.0771626853888372
9.356623999999998,6.732045564191797,0.0768381061555123
9.359016,6.766455259791089,0.0764894239492087
9.361396,6.799002624270828,0.0761509227164017
9.363791999999998,6.829827427257868,0.075816122032179
9.366179999999998,6.858138272819293,0.0754830592290557
9.36856,6.884307248007442,0.0751733250074408
9.370959999999998,6.907403187262534,0.07489074691977
9.373347999999998,6.928776565024932,0.0746098394420796
9.375728,6.951500417227686,0.0743070484347576
9.378127999999998,6.972501707937745,0.0740063375858719
9.380515999999998,6.989918106035551,0.0737151391114943
9.382896,7.003889381147965,0.0734255486091265
9.385296,7.017860656260377,0.073137631329006
9.387683999999998,7.036115672119344,0.0728146984772739
9.390064,7.0515771912989775,0.0725031318884601
9.392464,7.059030307492942,0.0722437888631845
9.394851999999998,7.065412488500269,0.0719949219091702
9.397232,7.068861403201401,0.0717612186882524
9.399628000000002,7.072589857156253,0.0715152087401935
9.402016,7.073664584058631,0.0712729947562363
9.4044,7.075018850214728,0.0710184583312231
9.406804,7.073719389318351,0.0707673782717317
9.409192,7.072839237302554,0.0704977613757043
9.411575999999998,7.071167689353838,0.0702247182246603
9.413976,7.068425206218485,0.0699606531891345
9.41636,7.0659622623368525,0.0696842494614913
9.418743999999998,7.0639186273358,0.0693893711132708
9.42114,7.064808258640943,0.0690805682629454
9.423528,7.065837659572946,0.0687669026650902
9.425912,7.066727290878088,0.068458922969643
9.428308,7.068548087743009,0.0681481672025502
9.430696,7.072510754981208,0.0678195006777312
9.43308,7.075682026286487,0.0674881877556444
9.435476,7.068842793859683,0.0672130796097466
9.437864,7.058930525499823,0.0669561618564861
9.440244000000002,7.05209129307302,0.0666776262614781
9.442644,7.0413876287802415,0.066414061185992
9.445028,7.033337691539939,0.0661481357790954
9.447411999999998,7.025939380605695,0.0658924384829817
9.449812,7.021194796723924,0.0656358342207435
9.4522,7.014448112095737,0.0653896988664714
9.454579999999998,7.006490722654052,0.0651574920718636
9.45698,6.999045189891564,0.0649417482420974
9.459368,6.992251283435134,0.0647357565191438
9.461752,6.988111104031177,0.0645292660095382
9.464148,6.982760219813724,0.0643372053906643
9.466536,6.974848156342411,0.064180208588188
9.46892,6.964794222497822,0.0640402108981084
9.47132,6.955531684586152,0.0639042653539914
9.473708,6.948131477794037,0.0637639102328137
9.476088,6.9424538324946194,0.0636257575370554
9.47848,6.936217108687762,0.0635119084577062
9.480864,6.929840615254043,0.0634039887472895
9.483244,6.927328553686299,0.0632811096605134
9.485639999999998,6.930822794357804,0.0631275105539947
9.488024,6.937110531708644,0.0629684890704072
9.490404,6.951127132791431,0.0627821341607715
9.492796,6.967565143501215,0.0625688248131926
9.495184,6.981349427158525,0.0623552647804576
9.497564,6.992340214136499,0.0621481610087754
9.499975999999998,7.0071954329804464,0.0619285126821256
9.50236,7.028056954063646,0.0616817869578454
9.50474,7.046264748094369,0.061434506357155
9.507156,7.0636811461921765,0.0611831338770924
9.50954,7.074299846117814,0.0609547622717807
9.511919999999998,7.086920646789868,0.0607173730807493
9.514312,7.102894022648699,0.0604506796215997
9.516699999999998,7.117284606641692,0.0601751425798256
9.519096,7.125389349141716,0.0599392871193276
9.521492,7.1325629260819605,0.0597058389878235
9.52388,7.135220444850173,0.0594742539317462
9.52626,7.139368207685607,0.0592175416235805
9.528664,7.140303164961124,0.0589827078683394
9.531048,7.146313258916114,0.0587235177746287
9.533428,7.152183583244241,0.0584722334872307
9.535832,7.15898507313215,0.0582216466117602
9.53822,7.160990965594306,0.0579851948923636
9.5406,7.160854987683184,0.057764036397005
9.543,7.162441571264759,0.0575457773820067
9.545388,7.161746514846197,0.0573466851604569
9.547768,7.159840753614135,0.0571614693219939
9.550172000000002,7.15272008607574,0.0570063313527806
9.55256,7.148392915216682,0.0568474237256223
9.55494,7.145788305850319,0.056692066194494
9.557339999999998,7.149189998723208,0.0565114976585893
9.559724,7.154454022715653,0.0563299286532216
9.562104,7.158507341894599,0.0561615884184476
9.5645,7.166005784058937,0.0560009514566187
9.566888,7.178719132529609,0.0558111341624363
9.569268,7.192223876933198,0.0556267783597761
9.571664,7.208242578762402,0.0554505375618016
9.574052,7.221700101337747,0.0553058753446511
9.576432,7.241163926152344,0.0551379689132884
9.578836,7.257275175780165,0.0549979409245718
9.58122,7.268590827982233,0.0548685562852433
9.583604,7.273900177945053,0.0547620512550481
9.585996,7.281723485333486,0.0546646462961205
9.588384,7.286333987162003,0.0545869150519948
9.590768,7.291735884923439,0.0545142248512917
9.593164,7.302212919364349,0.0544197984317756
9.595548,7.310687853058841,0.0543329811904865
9.597928,7.320373491566831,0.0542338108369445
9.600332,7.328848425261321,0.0541473297355328
9.60272,7.338534063769312,0.0540492825718353
9.605099999999998,7.350361572650579,0.0539394635084547
9.607504,7.35953535447937,0.0538271296562963
9.609892,7.371921941868077,0.0536968314845325
9.612272,7.384448298883646,0.0535619948758397
9.614676,7.398045591085852,0.0534221277086203
9.617064,7.410851487355141,0.0532778630570205
9.619444,7.425007858064789,0.0531170051560188
9.621847999999998,7.442377034334351,0.0529382714719163
9.624236000000002,7.456021548364801,0.0527627314005375
9.626616,7.467152104969636,0.0525777509281353
9.629012,7.484009424560003,0.0523846908903634
9.6314,7.504498858590865,0.0521570528316643
9.633784,7.521403400009473,0.0519259512389161
9.636188,7.541380977361136,0.0516814986293935
9.638571999999998,7.561777863593381,0.0514217233858631
9.640952,7.582314519452486,0.0511587826958218
9.643344,7.604853276058008,0.0508897625430556
9.645732,7.627112493409808,0.050632102294906
9.648112,7.650722185201968,0.0503586601522683
9.650508,7.6701879058744336,0.0501036127127518
9.652892,7.683647324307648,0.049867654545296
