Time,Force,Position
8.441559999999999,2.5671214838045056,0.1925003612715718
8.443943999999998,2.677999982922312,0.1897307020463312
8.446328000000001,2.785110389688501,0.1867521899046371
8.448723999999999,2.882538949662437,0.1842178150680974
8.451111999999998,2.976803821762571,0.1815345856492519
8.453492,3.0657631356156245,0.1788091470802425
8.455891999999999,3.1544920279010698,0.175826692058144
8.458279999999998,3.234237921528565,0.1731682318798308
8.46066,3.301555693512717,0.1707987732942054
8.463059999999999,3.347738092733556,0.1692375592251113
8.465444000000002,3.3830279403486467,0.1679317146419076
8.467828,3.4008126337830515,0.1673016675055997
8.470224000000002,3.4070512534477797,0.1670900366096845
8.472608000000001,3.415478965314028,0.1666938812638322
8.477388000000001,3.41333899079862,0.166550194890674
8.479772,3.411384111880446,0.1665464659247912
8.482171999999998,3.4160871615075807,0.1662963873194701
8.484568,3.428239535612942,0.1657953396774328
8.486956,3.441882153785522,0.1651943779512834
8.489336000000002,3.456083850465544,0.1645387255654386
8.491731999999999,3.468283446399148,0.1639785793720225
8.494119999999999,3.478061632705755,0.1635504447279562
8.496504000000002,3.48835167569156,0.1631380210030401
8.498899999999999,3.4985019490505045,0.1627486258985439
8.501287999999999,3.509862927222948,0.1622986935635337
8.503668000000001,3.513634811290304,0.1621011008025819
8.506063999999999,3.5135422634916877,0.1620356738673705
8.508451999999998,3.515404594611244,0.1619771273965701
8.510832,3.5267183509554445,0.1616051613555671
8.513228000000002,3.538032107299644,0.1612318790174544
8.515616000000001,3.5536296043903977,0.1606655533130586
8.518011999999999,3.5702980366677903,0.1600443388918387
8.520412,3.582031101892571,0.1596180656244857
8.551459999999999,3.65455240503584,0.1592572382383116
8.553844000000002,3.662930999215976,0.1592275656413399
8.556239999999999,3.6773158956353615,0.1589927630444192
8.558627999999999,3.686905194628997,0.1589118005100313
8.561008000000001,3.698636363995908,0.1587495936623333
8.563407999999999,3.71050730298968,0.1585755967631149
8.565791999999998,3.7247996516104487,0.1582931999975772
8.568176000000001,3.741885496910553,0.1579343498165982
8.570571999999999,3.76255623482291,0.1575013926774786
8.572959999999998,3.7884418790415992,0.1568910428980973
8.575344000000001,3.819030572887424,0.1560830544893226
8.577739999999999,3.8431011078148,0.1554517934593248
8.580127999999998,3.867451181995897,0.1547921123205387
8.582524,3.888588450617078,0.1542587195499807
8.58492,3.920527618903261,0.1533905485288056
8.587308,3.9555398231225,0.1524076507174936
8.589692,3.98962086178196,0.151460350639795
8.592088,4.018906303015669,0.1506649406960667
8.59448,4.048191744249378,0.1498594892066139
8.59686,4.076825559177029,0.1490543928758312
8.599260000000001,4.102665877425344,0.1483268119737442
8.649439999999998,4.092381522013146,0.1478843239669316
8.651827999999998,4.089263160109717,0.1478496277724172
8.654212000000001,4.088658755631903,0.1477750738762026
8.656607999999999,4.091267156714004,0.1475952621138683
8.658992000000001,4.094015327422965,0.1474035983431739
8.661376,4.091176504773256,0.1473422792752369
8.663772000000002,4.090339782869965,0.147224577163584
8.666156,4.088571895406894,0.1471281417974048
8.66854,4.095883346116129,0.1467730605688458
8.670936000000001,4.10626783275842,0.1463296603923078
8.67332,4.114510449027434,0.1459557959833316
8.675699999999999,4.1236842308562265,0.14556193919248
8.678108000000002,4.135791278991214,0.1450869096172539
8.680496000000002,4.145616687126064,0.1446944155560967
8.682876,4.159446296753747,0.1441874717466423
8.685279999999999,4.1774198775011255,0.143556965970991
8.687664000000002,4.2027502349281125,0.1427102675195949
8.690044,4.22822036198196,0.1418601380936399
8.692440000000001,4.244611150863501,0.1412666468401538
8.694828000000001,4.2588600693717655,0.1407411231257094
8.697208,4.273388527133751,0.1401913526691143
8.699608000000001,4.288987920082374,0.1396163713726348
8.701996000000001,4.30421522597866,0.1390144209169034
8.704376,4.31650926556875,0.13848814793451
8.706779999999998,4.324799103666008,0.1380630927039872
8.709164000000001,4.336813604002378,0.1375561981867455
8.711548,4.34775716915211,0.1370839285859133
8.713944000000001,4.359911439115341,0.1365626056884571
8.716332000000001,4.364057306092904,0.136256568990949
8.718712,4.3641989715776335,0.1360537158346815
8.721115999999999,4.36634273780878,0.1357996434032936
8.723503999999998,4.363970445867895,0.135629473213426
8.725884,4.365602355419843,0.1353588701976924
8.728288,4.36844496978529,0.1350435566416963
8.752172000000002,4.312820624629153,0.1348836154460025
8.754552,4.316499960897893,0.1346916844072649
8.756948000000001,4.322181397913049,0.1344553489049616
8.759336000000001,4.330144474928342,0.1341510270168969
8.761716,4.34062150936925,0.1338199063641728
8.764116000000001,4.353100644556575,0.13344038123721
8.766504000000001,4.366650714930539,0.1330279601278403
8.768884,4.382202886050918,0.1325763385496142
8.77128,4.404412985716608,0.131992225680787
8.773668,4.422339344635743,0.1315320555690596
8.776052,4.442407573928153,0.1310211121912221
8.778448000000001,4.461544637660786,0.1305285499364469
8.780836,4.484546133259394,0.129953193472789
8.78322,4.509969038484998,0.1292931877758803
8.785616000000001,4.536183339643522,0.1286374957272752
8.788,4.563468575988683,0.1279616013510651
8.790384,4.593314991587701,0.1272035236591723
8.79278,4.622509780880661,0.1264363646091255
8.795168,4.656779706853094,0.1255569270713725
8.797564000000001,4.68876799282539,0.1247489268234962
8.799959999999999,4.717543473237771,0.1240318102733718
8.802347999999999,4.739753572903459,0.1234943751688353
8.804732000000001,4.756888535889676,0.1230702938457877
8.807127999999999,4.772673024435532,0.1227001827859126
8.809515999999999,4.786734951488694,0.1223522005974533
8.811896,4.8006571089149945,0.122015566092473
8.814291999999998,4.821376964513464,0.1215619234146347
8.816680000000002,4.8388840145520176,0.1211888952819187
8.819064000000001,4.853178259030656,0.1208946472097335
8.821459999999998,4.867891812389875,0.1205690049675595
8.823848000000002,4.87818185537568,0.1203534385992762
8.826232000000001,4.890753538361621,0.1200806104520323
8.828636,4.904535926161062,0.119776437321044
8.831024,4.9178990050799225,0.1195039424082644
8.833404000000002,4.928189048065727,0.1192942808591182
8.835808,4.937408155864894,0.1191107834537783
8.838196,4.946999350716398,0.1189587733396833
8.840575999999999,4.960454977433875,0.1187463494805261
8.842972,4.969115006725599,0.1186102421022174
8.84536,4.982198546390739,0.1183755046328911
8.847740000000002,4.9977034956828765,0.1180780102955152
8.85014,5.019354516841124,0.1176677055323981
8.852523999999999,5.04314740837265,0.11720964292778
8.854907999999998,5.06400703359798,0.1167976211197602
8.857304,5.087520385875785,0.116362250195843
8.859691999999999,5.11103373815359,0.1159268792719258
8.862072000000001,5.126398917818866,0.1156450640718967
8.864467999999999,5.143254341551362,0.1153135388104288
8.866855999999999,5.158387203791161,0.1149943843633393
8.869236,5.175102857896797,0.1146730462848922
8.871632000000002,5.195031317562349,0.114284126982497
8.874020000000002,5.212538367600902,0.1139617981328848
8.876404,5.227763777639318,0.1136949783650745
8.878799999999998,5.242337561371677,0.113419923363566
8.921812,5.2370338989824665,0.113129696570439
8.924199999999999,5.237313438236186,0.1131110294402741
8.938531999999999,5.239035999728882,0.1130996248845026
8.940916000000001,5.240526243796102,0.1130504198066542
8.943316,5.245880919729294,0.1129455576244725
8.945699999999999,5.256730041222541,0.1127268815015532
8.948084000000001,5.269581263462204,0.1124775508497045
8.950479999999999,5.282013176821285,0.1122581516963095
8.952867999999999,5.294445090180366,0.1120393087841169
8.955248000000001,5.306877003539448,0.1118223042446301
8.957643999999998,5.322521722458445,0.1115458015474888
8.960031999999998,5.340168542123859,0.1112375580959114
8.962428,5.35544117399052,0.1109356451131022
8.964828,5.374997546603734,0.1105534611316228
8.967216,5.391760422537613,0.1102058493269878
8.969596,5.401073973993264,0.1099455373285321
8.971996,5.4061037847023625,0.109766464556518
8.974384,5.411273365038321,0.109579188288326
8.976764,5.414440844627863,0.1094223284511874
8.97916,5.417887863471125,0.1092464396501152
8.981548,5.424547687874303,0.1090131943086805
8.983927999999999,5.439215915263148,0.1086583999668462
8.986324,5.454163681905714,0.108286003732125
8.988712,5.469902844481197,0.1079168510362725
8.991095999999999,5.485130150377484,0.1075328245462577
8.993500000000001,5.494770462915099,0.107211541169362
8.995888,5.499615178026964,0.1069493138204717
8.998268,5.501294309407156,0.106690697561944
9.000664,5.502973440787348,0.1064322697449898
9.003052,5.503861176234621,0.1061756076215832
9.005431999999999,5.503538206868396,0.105948283399445
9.007836,5.503914085636473,0.1056776737563323
9.010224,5.504289964404549,0.1054064344481213
9.012604,5.501592807239569,0.105182341453884
9.015,5.500897750821006,0.1049304330932244
9.017388,5.505138061455056,0.1046120323413056
9.019768,5.510077220223406,0.1042484206879874
9.022164,5.515575457499196,0.1038519357255755
9.024552,5.52042206846893,0.1034452538362494
9.026932,5.528621254625439,0.102977135294921
9.029332,5.531093677796418,0.1025745149510626
9.031716,5.530632834661202,0.1022106243893509
9.034096000000002,5.530171991525987,0.1018470711944105
9.036492,5.527057421338297,0.1015024593836395
9.03888,5.522871915963967,0.1011749803563251
9.041276,5.523342238388529,0.1008034296389405
9.043672,5.527165135999868,0.1003693280259817
9.046056,5.5356438614100965,0.099891902657931
9.048436,5.54226025570077,0.099430589396786
9.050832,5.543941282938832,0.0990270536602675
9.05322,5.543899748684195,0.0986327043321045
9.055599999999998,5.540365869615924,0.0983081466764637
9.057996,5.5397652568538485,0.0979496773248264
9.060384,5.54023557927841,0.0975735424318343
9.06278,5.537772635396777,0.0972314918044844
9.065176,5.536101087448063,0.0968915594923217
9.067564,5.532939295432128,0.096593380758574
9.069944,5.528007720095255,0.0963559962480048
9.07234,5.52372777106444,0.0961266221373087
9.074728,5.51474477240649,0.0959912526365938
9.077108,5.509346666360791,0.0958307969513372
9.079508,5.505671121807792,0.0956628162780532
9.081896,5.501576268374209,0.0955207758110193
9.084272,5.497201875686907,0.095395598014085
9.086668,5.497343541171636,0.0952390732115696
9.089056,5.496134732216008,0.095117020456245
9.09144,5.497300111059132,0.0949976990467134
9.093836,5.496183849902119,0.0949195701265541
9.09622,5.498932020611081,0.0948025439826235
9.09862,5.512342321358184,0.094577628756267
9.101016,5.528546118784623,0.09433181874244
9.1034,5.546612247330616,0.0940696753301596
9.105784,5.562536505503335,0.0938417630039614
9.10818,5.577110289235693,0.0936460664842941
9.110568,5.595408735207166,0.0934212829049669
9.112948,5.609563210058944,0.0932514131678074
9.115344,5.628653051963334,0.0930291998468834
9.117732,5.649884764241001,0.0927770204037986
9.120112,5.676331382825,0.0924594978357947
9.122508,5.705199411035998,0.0920926605160762
9.1249,5.733927669620135,0.0917365010208379
9.12728,5.75786033077852,0.0914240837123455
9.12968,5.780349969697928,0.0911000518861523
9.132068,5.802140760483037,0.0908147333437721
9.134452,5.818204788282615,0.0905828786068203
9.136856000000002,5.83054415384308,0.0903788603620316
9.13924,5.837948152350934,0.0902279881334602
9.141624,5.847354251605202,0.0900553879393766
9.14402,5.853827084553276,0.0899131878774956
9.177464,5.750664178162332,0.0898884376429702
9.17986,5.745264176258766,0.0898705063304324
9.182248,5.742797440661395,0.0898247888264187
9.184632,5.744986532862914,0.0897460126469597
9.187024,5.75024866099749,0.0896311382194073
9.189412,5.75243775319901,0.0895523620399483
9.239591999999998,5.735399129727149,0.0895461506237339
9.241976,5.734747503421092,0.0895366344036752
9.244368,5.737820539354146,0.0895004859383709
9.246756,5.749274065325207,0.0894046672070102
9.24914,5.754581519430157,0.0893808318162642
9.251536000000002,5.7640329446548,0.0893066819863015
9.25392,5.774555305066082,0.0892182964104727
9.256304,5.783215334357807,0.0891427923062148
9.2587,5.789081866970198,0.0890872598975101
9.261087999999996,5.795879565142365,0.08902439076026
9.275427999999998,5.80435260297899,0.0890071763199121
9.277808,5.808449352270441,0.0890062176467454
9.280203999999998,5.816410533427865,0.088971024882748
9.282588,5.824930793092728,0.0889036937769795
9.284983999999998,5.841459455743261,0.0887528145068061
9.28738,5.85999021914021,0.0885821093080572
9.289763999999998,5.873445845857687,0.0884699671729995
9.292144,5.885178911082469,0.0883633624003397
9.294548,5.891464752575439,0.0882873650648745
9.296931999999998,5.904176205188242,0.0881275226954565
9.299312,5.914745787427767,0.0879972256219889
9.301707999999998,5.925175600040432,0.0878754141055695
9.304095999999998,5.937747283026374,0.0877261389920734
9.306492,5.952460836385592,0.0875498471582503
9.308896,5.969456029744948,0.0873386982273194
9.311284,5.985240518290805,0.0871493932972239
9.313664,6.000885237209802,0.0869680133495835
9.316067999999998,6.018532056875217,0.0867657713696558
9.318452,6.039391682100547,0.0865220519222527
9.320832,6.062021090646816,0.0862252412419183
9.323239999999998,6.08758376549928,0.0859059520410601
9.325623999999998,6.11049271329927,0.085599350902364
9.328004,6.1296769988601465,0.0853181815668506
9.330407999999998,6.15086338516744,0.0850207196962676
9.332791999999998,6.164320907742787,0.0847860222940326
9.335176,6.176055868825437,0.0845565567869502
9.337571999999998,6.186859664348309,0.0843322061285091
9.339959999999998,6.201667661364015,0.0840736246361224
9.34234,6.219688463939635,0.083778354360536
9.344744,6.233705065022423,0.0835213569702601
9.347127999999998,6.246138874239373,0.0832606296662535
9.349508,6.256058726030709,0.0830008708352729
9.351912,6.266258117075767,0.0827280962542896
9.3543,6.275526342561046,0.0824616488518994
9.35668,6.2846547984194645,0.0822039110422088
9.359075999999998,6.295273498345102,0.0819129366640045
9.361463999999998,6.310315708644154,0.081569371173071
9.363844,6.327639558943344,0.0811966014968072
9.366243999999998,6.346965509988948,0.0808113084262218
9.368631999999998,6.368153792154111,0.0804198919226671
9.371012,6.388690448013215,0.0800244608497738
9.373416,6.4115087438724565,0.0796022254641071
9.375799999999998,6.437260306037893,0.0791615957810058
9.378183999999996,6.463943033763108,0.0787228330400221
9.380579999999998,6.494490193354299,0.0782595763603546
9.382967999999998,6.525968518505266,0.0777946060298307
9.385348,6.560799418843008,0.0772922467394272
9.387743999999998,6.58976378656836,0.0768319534416898
9.390131999999998,6.613513247987382,0.0764199805247791
9.392512,6.6384734142199,0.0759909762913006
9.394904,6.663433580452419,0.0755618492542584
9.397292,6.691327012991134,0.0751149539862979
9.399672,6.718289279970069,0.0746750522233247
9.402075999999996,6.744972007695284,0.0742494328505282
9.404464,6.7708633394875815,0.0738227448102563
9.406844,6.79675467127988,0.073399655116226
9.409247999999998,6.818222492698761,0.0730291565349247
9.411635999999998,6.839830083744506,0.0726565776083509
9.414016,6.856362538110776,0.0723227166389102
9.416411999999998,6.87089289173063,0.0720044725940491
9.418796,6.882210439790569,0.0717173929447654
9.42118,6.88524004561112,0.0714950863895581
9.423572,6.886686859565834,0.071267427971923
9.42596,6.88119620572152,0.0710820194220086
9.42834,6.874634616690567,0.0709065125578843
9.430736,6.865139761353419,0.0707468240461923
9.433124,6.852432100456356,0.0706158794143667
9.435503999999998,6.838793273999515,0.0704873130281386
9.437908,6.829018879408646,0.0703391655361716
9.440296,6.820967046310474,0.0701912846654993
9.442671999999998,6.81370660914522,0.0700465005703867
9.445076,6.805095697539606,0.0699242664219846
9.447464,6.794203145933856,0.0698271752161357
9.449844,6.783590133581826,0.0697169397726236
9.452247999999996,6.773116890856656,0.0695998365898605
9.454636,6.755426641078737,0.069535769411017
9.457016,6.736013829808122,0.0694710261317076
9.459412,6.711246342604314,0.0694534792731304
9.461796,6.687689560214006,0.0694195684737148
9.464175999999998,6.663061842637057,0.0693946009626516
9.466576,6.639225520993028,0.0693730619236991
9.46896,6.626330868640861,0.0692856593783683
9.471343999999998,6.609804101848198,0.0692464215717345
9.47374,6.597001997294647,0.0691951757848694
9.476128,6.5862019934875145,0.0691310444786347
9.478524,6.578195486359716,0.0690577943394384
9.480919999999998,6.573262015164973,0.0689624189124251
9.483307999999996,6.571913436582484,0.0688617118751452
9.485692,6.570564857999994,0.0687612909361953
9.488087999999998,6.569216279417504,0.0686614374318581
9.490472,6.57080096714121,0.0685472124239732
9.492856,6.573456590051554,0.0684239553355552
9.495252,6.581047580014511,0.0682744167695181
9.49764,6.589569735537245,0.0681228482992403
9.50002,6.597812351806259,0.067984616436517
9.502416,6.617136406993996,0.0677786698888285
9.504804,6.6372518581146505,0.0675756904355587
9.507184,6.663373611474555,0.0673375907667484
9.509588,6.692428631140657,0.0670871418811661
9.511972,6.722414816366535,0.0668342979955054
9.514356,6.7505386704728565,0.0665857444592898
9.516752,6.772656222339928,0.0663745393356953
9.51914,6.799988680513332,0.0661244113271906
9.52152,6.828392073873375,0.0658660631141354
9.523916,6.852791265740584,0.0656313094608779
9.5263,6.876259292048013,0.0654000198297824
9.5287,6.89651451279553,0.0651964790869267
9.531095999999998,6.915838567983268,0.06499573363021
9.533479999999996,6.932229356864808,0.0648085695813935
9.535864,6.945547109813294,0.064642074516589
9.538259999999998,6.954860661268947,0.0644986309218441
9.540647999999996,6.963243047164822,0.0643579933179156
9.543028,6.968552397127639,0.0642377443452787
9.545431999999998,6.970648941530542,0.0641432075557125
9.547819999999998,6.973536881866364,0.0640528474637341
9.5502,6.97214108145563,0.0639972189287799
9.552595999999998,6.974749482537732,0.0639205753615139
9.554983999999996,6.975355782873415,0.063854923494622
9.557364,6.97540300470166,0.0638141566324551
9.55976,6.978243723209237,0.0637673773728433
9.562148,6.983086542463232,0.0637102506085178
9.564528,6.9892798361575865,0.0636328186291868
9.566924,6.994262425038442,0.0635700559253169
9.569312,6.99831384835952,0.0635094918369251
9.571696,7.004087833173293,0.0634507616574941
9.574092,7.005857616494232,0.063412019205641
9.57648,7.009629500561589,0.0633631373720736
9.578875999999998,7.015543255002222,0.0632983088766406
9.581271999999998,7.026392376495468,0.063211667088968
9.583659999999998,7.0369619587349925,0.0631367221732469
9.58604,7.048602476161156,0.063053642873477
9.588435999999998,7.060242993587319,0.0629707985806703
9.590823999999998,7.071883511013482,0.0628879542878636
9.593208,7.08766799955934,0.0627790037186643
9.595603999999998,7.1017299266125,0.062668049460044
9.597987999999996,7.113929522546105,0.062561033879933
9.600368,7.12012281624046,0.0624841903167008
9.602776,7.12231190844198,0.0624272019581126
9.605159999999998,7.120916108031246,0.0623719622910378
9.607544,7.116587041314318,0.0623288644761657
9.609939999999998,7.115191240903585,0.0622740330778036
9.612327999999998,7.113376131612271,0.0622373445585268
9.614708,7.1109093960149,0.0621904740113364
9.617103999999998,7.10765126448461,0.0621393186090503
9.619491999999996,7.108025247394816,0.0620468671729684
9.621872,7.117478568477329,0.061908741832811
9.624268,7.126792119932981,0.0617770985380248
9.626659999999998,7.1341035706422185,0.061655536939577
9.62904,7.140623625418536,0.0615310207013896
9.631436,7.1501241683292935,0.0613564642916783
9.633824,7.159624711240049,0.0611821294727071
9.636219999999998,7.170335958964304,0.0609951701940844
9.63862,7.1825374507557775,0.0607840176611789
9.641004,7.194878712174111,0.0605689195337168
9.643387999999998,7.207219973592445,0.0603535015644175
9.645784,7.2221224142646365,0.0601068418709424
