Time,Force,Position
11.308751999999998,2.1883075535644734,0.1850419760435399
11.311139999999998,2.1985938048345397,0.1850052707064074
11.315924,2.20948635644029,0.1847217062191886
11.318312,2.20976589569401,0.1846677485554247
11.320691999999998,2.211023822335752,0.1844293082557274
11.323092,2.210838726738518,0.1842267600531726
11.32548,2.217451329313452,0.1836087264754144
11.327859999999998,2.2277885941275004,0.1827842631391444
11.330264,2.236635614874329,0.1820968990557656
11.332652,2.2466933404346565,0.1813061495978365
11.335031999999998,2.263269224913432,0.1801635082868418
11.337436,2.2767720734591523,0.1792543670626459
11.339824,2.2932081883110675,0.1781560667584807
11.342204,2.3085733679763445,0.1771251372467961
11.3446,2.321936446895205,0.1762430505808198
11.346988,2.3308760154406505,0.1756904406827489
11.349367999999998,2.337673713612819,0.1752824280912482
11.351768,2.352060505890075,0.1744569998993089
11.354156,2.365516132607552,0.1736638630140871
11.356535999999998,2.38320827824334,0.1726983216081739
11.358932,2.402622985371824,0.1716578259408862
11.36132,2.418452799888056,0.1708128798447901
11.363699999999998,2.4359126280983663,0.1697827882146421
11.366096,2.452441290748899,0.1688300314715257
11.368484,2.4677592485859328,0.167999015796698
11.370863999999996,2.4832169760498277,0.1671745838615664
11.4545,2.530555274824445,0.1668809746844645
11.456884,2.5319982970634216,0.166863364821783
11.45928,2.5335810889292576,0.1668232570641187
11.461668,2.538376686355009,0.1665820133860229
11.464047999999998,2.542520657474703,0.1663405682938087
11.466444,2.551739765273869,0.1657921416053977
11.468827999999998,2.5601674771401166,0.1652861734065935
11.487956,2.5519777702729547,0.1649275240040009
11.490344,2.550302430608501,0.1648768944128204
11.492724,2.549698026130686,0.1647604401301959
11.49512,2.552958053518845,0.1644510408119543
11.497508,2.556218080907004,0.1641458502500281
11.499888,2.5591985690414423,0.1638857758558082
11.502284,2.564693014601496,0.1635484080823575
11.504672,2.56953583385549,0.1632153047107365
11.507068,2.5733077179228467,0.1629418865747348
11.509463999999998,2.5801526379232587,0.162512857336815
11.511851999999998,2.5859266227370314,0.1621431969586324
11.514232,2.5937027082972213,0.1616792248923831
11.516627999999995,2.597334822737717,0.1614353835939314
11.519016,2.5981734404988788,0.1613071593747681
11.521396,2.5978013534465414,0.1612608290459883
11.523792,2.6026441727005367,0.1609349259414783
11.52618,2.611211654193645,0.1604589339292982
11.52856,2.6267166034857823,0.1596688651235031
11.530956,2.646225754270753,0.1586433963606567
11.533344,2.668668171361919,0.1574664970905535
11.53574,2.6864547606541938,0.156513002284088
11.538135999999998,2.701168314013412,0.1557139489678344
11.540523999999998,2.716673263305549,0.154927091365405
11.542904,2.732178212597687,0.1541624206740263
11.545299999999996,2.7435391907701296,0.1535958426658827
11.547687999999996,2.75690226968899,0.1529445315956386
11.550068,2.765329981555238,0.1525103021781566
11.552464,2.773478154167766,0.1521234213934819
11.554852,2.7868412330866263,0.1514902833226824
11.557232,2.795268944952874,0.1510761170910542
11.559628,2.805558987938679,0.1505928755688005
11.562016,2.813055534245148,0.1502168229966231
11.5644,2.822693950924895,0.1497274887392076
11.566796,2.8355451731645576,0.1490718867813098
11.616979999999998,2.7611162129313573,0.1489805834193624
11.619363999999996,2.763352526961121,0.1486683485627253
11.621748,2.7705242080434966,0.1481457588090781
11.624143999999998,2.776345414685513,0.1477131594568384
11.626528,2.7849601180068646,0.1471945722853296
11.628912,2.791432950954939,0.1467854703837583
11.631308,2.795903683156596,0.1464568070585487
11.633696,2.79623044423856,0.1463153006565369
11.636091999999998,2.803075364238972,0.1459463330914059
11.638488,2.813924485732217,0.1454023399153617
11.640876,2.8218403409192674,0.1449860227977111
11.643255999999996,2.8308271312929567,0.1445217604053651
11.64566,2.832177605733316,0.144434249257661
11.648048,2.832736684240756,0.1443585193004083
11.650427999999998,2.839441834614308,0.1440171247918098
11.652828,2.8440051146145824,0.1437768683892801
11.655216,2.855366092787025,0.143276898902749
11.657595999999998,2.86579590539969,0.1428112523756148
11.659992,2.878507358012492,0.1422265291274146
11.66238,2.8909392713715745,0.1416799910523228
11.664759999999998,2.9015088536111,0.1412034940607508
11.667156,2.908725860663848,0.1409011625667385
11.669543999999998,2.9124505229029616,0.1407805012830372
11.671924,2.916454724395796,0.1406199330638214
11.674319999999998,2.916734263649516,0.1405828870365519
11.676707999999998,2.916082637343458,0.1405756601246364
11.679088,2.9182245077167352,0.1404779914529393
11.681487999999998,2.9243705795828463,0.1402222285474877
11.683871999999996,2.926791989209844,0.1400885766312722
11.686252,2.930004794769759,0.139946278821057
11.688651999999998,2.9340089962625933,0.139794315467123
11.691036,2.93615086663587,0.1397004974670219
11.693435999999998,2.9388518155165886,0.1395303013985057
11.69584,2.943275325890003,0.139319683935075
11.698224,2.94555696589014,0.1392067351433415
11.71494,2.940995581747734,0.1391542567436047
11.717344,2.944115839509033,0.1389347488058334
11.719732,2.9473758668971914,0.138695334843845
11.722112,2.9483542542852126,0.1385667866915709
11.724508,2.950403576859873,0.1383901953817352
11.726896,2.9527324386882534,0.1381790701027321
11.729276,2.955201070143494,0.1379542837723345
11.731668,2.9584610975316523,0.1377182446252884
11.734056,2.957996462680698,0.1375943912933707
11.736435999999998,2.956740431896826,0.1374807984027306
11.738832,2.956275797045871,0.137357005432953
11.741219999999998,2.9624690907402247,0.13702622960552
11.7436,2.9688021540614398,0.1366815494752928
11.746004,2.9743438214497355,0.136345081115671
11.748387999999998,2.9778833880916142,0.1360803774748989
11.750767999999995,2.9823541202932717,0.1357867323917763
11.753172,2.9805390110019583,0.1357446650729026
11.75556,2.977792736150866,0.1357308213678709
11.757939999999998,2.978910893165748,0.1355848878613588
11.760336,2.9868267483527986,0.1352091148670233
11.762724,2.991809337233654,0.1349344347112414
11.765103999999996,2.9925081853679543,0.1348459082083676
11.767508,2.9992133357415054,0.1345503612487005
11.769896,3.0123440972348887,0.1340008506737352
11.772275999999998,3.02640602428805,0.1334305091274891
11.774672,3.0379067720873536,0.1329961535939125
11.77706,3.046334483953601,0.1326755726580114
11.779439999999996,3.056252439887069,0.1322650712909886
11.781835999999998,3.0672413310071747,0.1318066145137799
11.784219999999998,3.077019517313782,0.1314057849186458
11.786616,3.087868638807028,0.1309652740590994
11.789012,3.0929909973147423,0.1306996070860388
11.7914,3.095319859143123,0.1305069113147229
11.793779999999998,3.09951105209106,0.1302659757596448
11.796176,3.105844115412274,0.129943702901028
11.798564,3.1135276531738474,0.1295492023391753
11.800943999999998,3.129778672428529,0.1288206809464731
11.80334,3.147892022802767,0.1280429530221971
11.805727999999998,3.1662849124307253,0.1272418208690129
11.808124,3.177880103886515,0.1266526993502445
11.81052,3.194410662394916,0.1259185677983526
11.812908,3.208939120156901,0.1252403445454474
11.815288,3.21410870049286,0.1248914512721204
11.817684,3.212992439335847,0.1247646087745594
11.820072,3.210805242992196,0.1246768212904868
11.822456,3.2133210962756795,0.1243876695484947
11.824856,3.2136950791858867,0.1241723560952563
11.827244,3.210576717282458,0.1241072418786082
11.829624,3.209180916871725,0.1240125092422835
11.832027999999998,3.2109979220209075,0.1238009052562635
11.834412,3.210952596050534,0.1236349052869243
11.836792,3.209836334893521,0.1235068787387421
11.839192,3.2125845056024813,0.1232713434930298
11.841576,3.215192906684583,0.1230540615777697
11.843956,3.216590602953185,0.1228925726827764
11.846352,3.2201301695950644,0.1226597000556674
11.84874,3.223250427356364,0.1224798209558152
11.851124,3.224648123624965,0.122325413033524
11.85352,3.2259060502667074,0.1221877277833212
11.855904,3.230237012841505,0.1219592313713691
11.858283999999998,3.2317744787369667,0.121792904822515
11.860688,3.238387081311901,0.1214856030311994
11.863076,3.250214590193168,0.1210137866809275
11.865455999999998,3.2641839694477124,0.120467007392464
11.867852,3.279503823142615,0.1198594898454622
11.87024,3.2896087705311854,0.1194165582392222
11.872632,3.3039974586663097,0.1188300233543049
11.875035999999998,3.3248117579212657,0.1180420689264138
11.877423999999998,3.344974430870164,0.1172491491816526
11.879804,3.3611329023262275,0.1165657759583639
11.882199999999996,3.37794300008835,0.1158905624485208
11.884587999999995,3.39540472415653,0.115215498857378
11.886968,3.408442937851296,0.1146947906753418
11.889367999999996,3.4196188204265057,0.1142133825370081
11.929968,3.341508628066697,0.1137979610916304
11.932371999999996,3.3385300357901277,0.1137096800065813
11.93476,3.3381126227674165,0.1135153675324432
11.93714,3.338114518625286,0.1132768036127563
11.939539999999996,3.338256184110016,0.113023874722271
11.941924,3.3425418207144384,0.1126570475629102
11.944304,3.3465479180651414,0.1123177288303671
11.946707999999996,3.3536270513489,0.1118997026020942
11.949095999999995,3.3628480550059354,0.1114194263361293
11.951476,3.370998123476332,0.1109652649126168
11.953879999999998,3.380358896760228,0.1104624222286716
11.956263999999996,3.3871584907902657,0.1100658816278448
11.958648,3.3995450781789733,0.1095745957143074
11.961047999999998,3.41314237038118,0.1090347877619212
11.963435999999998,3.422875230717413,0.1085824343174376
11.965816,3.431676925493868,0.1081497125064517
11.96822,3.4367539580312094,0.1077820114385447
11.970608,3.442762156128329,0.1073934499568095
11.972987999999996,3.453286412397481,0.10694014885013
11.975388,3.461668798293355,0.1065504895667252
12.056608,3.3989653198534584,0.1062918636405443
12.059003999999998,3.40581023985387,0.1060727243840753
12.0614,3.41479703022756,0.1057922995210173
12.063788,3.421921489481692,0.1055467900238219
12.066167999999998,3.430256653549322,0.1052600123467719
12.068564,3.437660652057175,0.1049828955671289
12.070956,3.4412002186990547,0.1047817550642211
12.073335999999998,3.441154892728681,0.1046277295364348
12.075732,3.4392472356387502,0.1045047296420431
12.078119999999998,3.4381309744817377,0.1043804479384921
12.0805,3.43408144701853,0.1043158687009238
12.082895999999998,3.431522163622541,0.1041793957212829
12.085283999999998,3.429894045786332,0.1040281701655923
12.087664,3.4311991942563167,0.1038157925347597
12.090059999999998,3.43343550828608,0.1035859278012187
12.092447999999996,3.4384653189951777,0.103306346993248
12.094832,3.4407016330249416,0.1030735155710688
12.097227999999998,3.4375832711215124,0.1029927820494506
12.099615999999996,3.4423335425768906,0.1027434532969294
12.101996,3.4430796125394347,0.102585992017031
12.109175999999998,3.425064497537422,0.1025015947563632
12.11158,3.4174300774619613,0.1024781084732526
12.113964,3.4123096148121146,0.1024384060016549
12.116343999999998,3.415849181453994,0.1022478980108203
12.11874,3.4243241151484853,0.1019636932347095
12.121128,3.435592545522312,0.1016386336776624
12.123507999999998,3.44634911921694,0.1012867292747632
12.125916,3.4583163977250666,0.1008956144289089
12.1283,3.474148108099167,0.1004377964757753
12.130679999999998,3.4875584088462706,0.1000623831583657
12.133076,3.501248248847094,0.0996643826715387
12.135464,3.5170799592211943,0.0992182473423602
12.137843999999998,3.534913770341712,0.0987337014883294
12.14024,3.554749682208646,0.0982149517087773
12.142627999999998,3.5756565292622198,0.0976646379948878
12.145008,3.598565477062209,0.0970620516734436
12.147412,3.612534856316753,0.0966367328038202
12.1498,3.6271558618773554,0.0962203250818268
12.152179999999998,3.642568263370876,0.0958032477092295
12.154576,3.657980664864396,0.0953843122754136
12.156964,3.675115627850612,0.0949565962828243
12.159343999999995,3.69131942527705,0.0945469558623577
12.161739999999998,3.70221576859854,0.0941920131828641
12.164127999999998,3.704452082628303,0.0939804374049065
12.166524,3.702544425538372,0.0938586236873975
12.168924,3.698774437328885,0.0937610782001693
12.171312,3.695236766544875,0.0937168477857419
12.173692,3.693840966134142,0.093622695197619
12.176088,3.693655870536908,0.093492655520408
12.178476,3.693470774939674,0.0933618846103239
12.18086,3.6952877800888566,0.0931977274781218
12.183256,3.694171518931844,0.0930798584970613
12.185644,3.691332696282135,0.0929711857522279
12.188024,3.6855606073262304,0.0929074378816609
12.19042,3.6836529502363,0.0927885558747294
12.192808,3.6821646020269503,0.0926318133764223
12.195187999999998,3.6857513904970727,0.092382593812892
12.197588,3.693482150086888,0.0920550455811089
12.199976,3.70428594560976,0.0916752687386241
12.202355999999998,3.716952072252188,0.0912756964841155
12.204756,3.726173075909225,0.090893847702275
12.207144,3.73390383549904,0.0905705871606366
12.209523999999998,3.741355055835137,0.0902689618804289
12.21192,3.751879312104288,0.0899083238447131
12.214308,3.761612172440522,0.0895416459097542
12.216687999999998,3.775209464642727,0.0891238595381414
12.219084,3.7882949001657367,0.088676776614384
12.221472,3.796444968636133,0.08831108717813
12.223868,3.7993801308001975,0.0880488565578734
12.226264,3.803525997777761,0.0877504947711727
12.228652,3.799244152889076,0.0876221449607311
12.231032,3.7986869702395047,0.0874528388472091
12.233428,3.799852349082629,0.0872757681556175
12.235816,3.800226331992836,0.0870951027151233
12.2597,3.7122397179541946,0.0870313488687026
12.264484,3.695992490415252,0.087012134492145
12.266868,3.688869927018989,0.0869856084643915
12.269264,3.6814678243690055,0.0869843051274764
12.271648,3.675276426532521,0.0869489576420225
12.274044,3.669224798322897,0.0869005656032751
12.276439999999996,3.669738550859964,0.0867057472553989
12.278827999999995,3.664525540411501,0.0865819002184204
12.281212,3.6590329907093175,0.0864834618449948
12.283607999999996,3.655263002499831,0.0863778972717267
12.285995999999995,3.6527037191038425,0.0862371205121186
12.288376,3.6489337308943552,0.0861312009260229
12.290772,3.643720720445892,0.0860065673168576
12.29316,3.641440976303624,0.0858397944722663
12.295544,3.642234268094411,0.0856185467993586
12.29794,3.644098495071837,0.0853745336006266
12.300328,3.645171326116345,0.0851269192597714
12.302708,3.64661624421319,0.0849213389350292
12.305108,3.646198831190479,0.0847338177141684
12.307492,3.644058856675071,0.0845527504211837
12.309872,3.640056551040106,0.0843909462779327
12.312268,3.643922878763949,0.0841192299114498
12.314656,3.644436631301016,0.0839265930334431
12.31704,3.646161088651582,0.0836984337169554
12.319432,3.6506790426814826,0.0834443547570531
12.32182,3.6530551263381055,0.0832321630838773
12.324216,3.655291440367869,0.0830343208944755
12.326611999999995,3.6593900855171895,0.0828164958663365
12.329,3.662976873987312,0.0825709573810697
12.331384,3.668705532830711,0.0822852077900159
12.333779999999996,3.675225587607029,0.0820050118946687
12.336168,3.682956347196845,0.0816933736667938
12.338552,3.6904075675329406,0.0814051954816239
12.340947999999996,3.6955771478689,0.0811690978100724
12.343335999999995,3.6992564841376394,0.0809916069961919
12.345716,3.7018648852197393,0.080834632180397
12.348115999999996,3.709129114100732,0.080637841296762
12.350503999999995,3.714810551115888,0.0804331303557971
12.352884,3.724356419997017,0.0801833400805916
12.355283999999996,3.735485080743984,0.0799414943459956
12.357671999999996,3.7459148933566486,0.0797613552285757
12.360052,3.750617942983784,0.0796450140377344
12.362448,3.751456560744944,0.0795716049455552
12.364836,3.7529468048121633,0.0795142762893198
12.36722,3.7535058833196047,0.0794656783746485
12.369616,3.7590003288796576,0.0793532784041571
12.372004,3.768079667051963,0.0792251533689475
12.374388,3.7790213363438254,0.079081723463259
12.376784,3.791685567128385,0.0789374174427382
12.379172,3.801416531606749,0.0788288374491256
12.381556,3.8100765608984735,0.0787400202764962
12.383951999999995,3.81738611574984,0.078694057452977
12.38634,3.824555900974346,0.0786590846077346
12.388724,3.8372201317589054,0.0785185850965686
12.391119999999995,3.848301570677628,0.0783672395532281
12.393508,3.862176506275685,0.0781944702170226
12.395892,3.871395614074851,0.078060501243276
12.398287999999996,3.8795437866873783,0.0779443020375653
12.400676,3.888902664113405,0.0778013912231565
12.40306,3.8978894544870943,0.077620586046691
12.405455999999996,3.905153683368087,0.0774400480578197
12.407843999999995,3.91120720743558,0.0772881973155312
12.410228,3.9226154074362665,0.0770405712634107
12.412623999999996,3.9372364129968687,0.0767396502314546
12.415011999999995,3.948924152251276,0.0764711874149818
12.417396,3.957538855572627,0.0762499672597133
12.419791999999998,3.958564464788892,0.0760961495923846
12.422179999999996,3.960940548445516,0.0759030640224621
12.424564,3.9594522002361656,0.0757476891209771
12.426963999999998,3.956613377586456,0.0756322803354563
12.429351999999998,3.9548454901233856,0.0754990337823066
12.431732,3.9544280771006735,0.0753254029805131
12.434131999999998,3.958294404824517,0.075081716215957
12.436519999999998,3.959879092548223,0.0748873125221931
12.4389,3.964536816204984,0.0746518673103282
12.441299999999998,3.9697536183691855,0.074375641003039
12.443687999999998,3.9768327516529447,0.0740881051803447
12.446071999999996,3.990197726429674,0.0737145926398468
12.448467999999998,3.997416629340292,0.0734197007524246
12.450855999999998,4.003564597064273,0.0731419379114785
12.453239999999996,4.010131873668834,0.0728285686714254
12.455635999999998,4.019120559900391,0.0724587705873337
12.458028,4.031042512438145,0.072069561706882
12.460407999999996,4.038168867550146,0.0717196211672403
12.462808,4.049578963408702,0.0713073988109868
12.465196,4.05926649777456,0.0708929167342072
12.467575999999998,4.071095902513696,0.0704427360666659
12.469967999999998,4.080923206506416,0.0700181010460421
12.472355999999998,4.090890280125996,0.0695785467991633
12.474736,4.106351799305628,0.0690506214911726
12.47714,4.117809116992427,0.0685620120640482
12.479527999999998,4.126193398746169,0.0681099990685401
12.481908,4.1296423134473015,0.067706681487915
12.484312,4.1301579618422375,0.0673279929520536
12.4867,4.127740343930978,0.0669740159249703
12.489079999999998,4.117034783780332,0.0667210490654066
12.491476,4.104606662136988,0.0664658645531598
12.493864,4.084542224560316,0.0663303335778336
12.496243999999995,4.065688491797141,0.0661675155006231
12.498639999999998,4.047346615713164,0.0660326309191491
12.501027999999998,4.032729401868301,0.0658774407698928
12.503408,4.018763814329495,0.0657385515743856
12.505812,3.99744145011108,0.065695822075413
12.510579999999996,3.957310679099864,0.0656137732745546
12.512975999999998,3.937431337120425,0.0655905657932975
12.515363999999998,3.9192745566336815,0.0655683844091671
12.517744,3.899115675400523,0.0655641600760237
12.522527999999998,3.8626623448001776,0.0655211952619438
12.524924,3.8478581395002114,0.0654368672849145
12.52732,3.83640650938702,0.0652968533829274
12.529708,3.827096749647106,0.0651265733729677
12.532087999999998,3.821791191400026,0.0649202830377807
12.534484,3.8234231009519744,0.0646595456088431
12.536872,3.8362762190495054,0.0642873269137257
12.539251999999998,3.849780963453096,0.0639332522342011
12.541656,3.866917822297181,0.0635013768688477
12.544044,3.886848177820602,0.0630595446081749
12.546423999999998,3.907197842224603,0.0625859002047171
12.54882,3.925545405882188,0.0621341530240858
12.551208,3.942822034353134,0.0616981400800103
12.553591999999998,3.965732878010993,0.0611720738763176
12.555988,3.9875727864822137,0.0606677324260511
12.558372,4.012765270140211,0.0601074470871222
12.560751999999995,4.037957753798207,0.0595535800606561
12.563152,4.063429776709923,0.0589849064532045
12.56554,4.093837166674252,0.0583865793965167
12.567919999999996,4.122102686265304,0.057821376112268
12.570315999999998,4.150647745110076,0.0572359958432214
