Time,Force,Position
13.270395999999998,1.5737201986245293,0.1816824676444956
13.272792,1.615894604636797,0.1795299168848229
13.27518,1.6492238857601054,0.1782960165669616
13.277559999999998,1.676221999420069,0.1774561441768584
13.279956,1.706759679721912,0.17594053128396
13.282343999999998,1.7308736447617927,0.1748068757237546
13.284724,1.7513573912190463,0.1736686026947585
13.287119999999998,1.7664883576009769,0.1726175819771563
13.289507999999998,1.7713311768549718,0.1720712571771663
13.299067999999998,1.767842623757074,0.1714918597454215
13.303852,1.7660275144657605,0.1714590227059524
13.306231999999998,1.7680768370404203,0.1711314393897095
13.308636,1.7679842892418034,0.1710007784435814
13.31102,1.7686831373761045,0.1708448707825315
13.313403999999998,1.7700336118164637,0.1706877746810885
13.315796,1.7754808355482732,0.1703455565248178
13.318188,1.7823710815190588,0.1699729963428582
13.320567999999998,1.7868399178628471,0.1698542303586677
13.334899999999998,1.7903775886468576,0.1697808154860887
13.337304,1.79926993536406,0.1692893900667537
13.339692,1.8136095058130728,0.1685118519617068
13.342071999999998,1.831161881822,0.1674660445327735
13.344476,1.8537893945104005,0.166083754404526
13.34686,1.874694345706104,0.1648048997669124
13.349239999999998,1.8928058002224728,0.1636811008484058
13.35164,1.9129193554852584,0.1624121509503217
13.354024,1.9267470692550728,0.1616273487138099
13.356407999999998,1.9444392148908607,0.1606283917473782
13.358804,1.957987389406955,0.1599399316486742
13.361192,1.9733978950426057,0.1591416358764446
13.363571999999998,1.9873653784392808,0.1583744906741358
13.365976,1.9978877388505627,0.1577415028535525
13.36836,2.0134852359413165,0.1567807485981756
13.370743999999998,2.0294548200844083,0.1558498993231376
13.37314,2.0439341601602807,0.1550807244180972
13.375528,2.062557471355848,0.1540568433270815
13.377907999999998,2.0822517177380524,0.1529098110779469
13.380316,2.1048792304264525,0.1516192963982535
13.399411999999998,2.134019214459693,0.1511598117382628
13.401808,2.141421317109676,0.1509393624997423
13.404196,2.1443073615876287,0.1509183047091445
13.406575999999998,2.14854388050594,0.1507760116584435
13.408976,2.154130873864609,0.1505209019478864
13.411364,2.1603694935293367,0.1502755890517154
13.413743999999998,2.173266041739373,0.1497153696406893
13.416144,2.1782939565906023,0.1495637139298758
13.418527999999998,2.1866744466286074,0.1491879930793039
13.420911999999998,2.197196807039889,0.1486758767556741
13.423308,2.200502160398422,0.1485838007553911
13.430488,2.2049709967422104,0.1485346342197829
13.432879999999995,2.208835428608184,0.1483322977764415
13.43526,2.2124203212204367,0.148178249650242
13.437656,2.2180073145791077,0.1479121350632976
13.440044,2.2257361783110543,0.1475058963158728
13.442424,2.2330929549906635,0.1470405147302918
13.46154,2.2305808934229177,0.1467176246463637
13.468704,2.2261592789073723,0.1466337882211126
13.471087999999998,2.2282086014820326,0.1464039656008114
13.473484,2.2291869888700533,0.1462382100361454
13.475872,2.231887937750771,0.1460154810523176
13.478268,2.238732857751183,0.1455553274059951
13.480663999999996,2.245438008124735,0.1451263686143745
13.483051999999995,2.255216194431342,0.1445344246505173
13.485436,2.259267617752419,0.1441975412456382
13.487831999999996,2.261177170700219,0.1439888523311975
13.490219999999995,2.2663920770065515,0.143698961667376
13.4926,2.2717467529397446,0.1433875250178369
13.494996,2.27509932812652,0.1431765601822091
13.497384,2.281385169619491,0.1428289365193228
13.499768,2.2859484496197657,0.1425297859923306
13.502164,2.2898601033139823,0.1422200630206926
13.504552,2.297915728127893,0.1416817526921157
13.506932,2.3087648496211384,0.1410326376058591
13.509328,2.319334431860664,0.1404425118588163
13.511716,2.325108416674437,0.1400801447410468
13.514096,2.3368887037274604,0.1394368006712784
13.516496,2.34438525003393,0.1390224366463087
13.518884,2.347225968541508,0.1387880833135418
13.521264,2.352348327049224,0.138418189852699
13.52366,2.3556083544373823,0.1381151712680754
13.526048,2.36007908663904,0.1377388872940389
13.528444,2.366040062907916,0.1372488716549033
13.530839999999998,2.367857068057099,0.1369605944713016
13.533227999999998,2.377682476191949,0.1363135879210581
13.535612,2.388718589140298,0.1355837447379474
13.538011999999998,2.394027939103117,0.1350806149876625
13.540399999999998,2.399709376118273,0.1346349481450508
13.54278,2.407951992387287,0.1340137561114186
13.545184,2.411119471976829,0.1336245633949486
13.600112,2.359265115030179,0.1333789145908712
13.602511999999995,2.359404884657039,0.1333573494177735
13.604899999999995,2.358893027977841,0.1333238077467485
13.607284,2.358381171298644,0.1332899618688902
13.609679999999996,2.363363760179499,0.1329487584757065
13.612067999999995,2.364621686821241,0.1327495381588825
13.614452,2.3678817142093997,0.132466225130866
13.616847999999996,2.3731438423439752,0.1320901439586981
13.619235999999995,2.380128531971247,0.1316830287059654
13.62162,2.383388559359406,0.131398786390814
13.624015999999996,2.394656989733232,0.1307556861535886
13.626403999999996,2.4047147152935597,0.1302037268037963
13.628784,2.4137015056672486,0.12970170047351
13.63118,2.423759231227576,0.1291497411237177
13.650288,2.4131934407037887,0.1289867604656668
13.652683999999995,2.415475080703926,0.128857633305845
13.655068,2.4236232533164546,0.1284935092471594
13.657467999999998,2.427627454809288,0.1283262494451558
13.659864,2.431491886675261,0.1281818217726492
13.662252,2.4354960881680947,0.1280216964606927
13.664635999999998,2.4399195985415094,0.1277990336138991
13.667032,2.4406184466758103,0.1276953168335444
13.669415999999998,2.448394532236,0.1273107373379301
13.671799999999998,2.4555189914901323,0.1269276606307658
13.674195999999998,2.458918788505152,0.1266501436664471
13.676588,2.464600225520308,0.1262576026409896
13.678971999999998,2.470281662535464,0.125870447279547
13.681368,2.4819694017898706,0.1252604590702387
13.683756,2.4915152706710004,0.1247368095596068
13.686135999999998,2.500409513246072,0.1241912269420966
13.688536,2.511166086940701,0.1235725604578684
13.690924,2.523924761381746,0.122875611112708
13.693303999999998,2.536683435822792,0.1221786617675477
13.695704,2.54757977914428,0.1215428498137505
13.698092,2.5575449569059905,0.1209418596003136
13.700475999999998,2.565508033921284,0.1204235336311144
13.702872,2.5698862183243247,0.1200031354324713
13.733932,2.514492294735795,0.1197664582194275
13.736311999999998,2.5095116017128087,0.1197278629663841
13.738712,2.5045309086898224,0.1196878001224293
13.741104,2.4987588197339186,0.1196533987468046
13.743479999999998,2.49578022745735,0.1195418792350626
13.745876,2.492661865553921,0.1194499902398684
13.748259999999998,2.491964913277489,0.1192301518433953
13.750652,2.492710983240033,0.1190199406141381
13.753044,2.4973214850685506,0.1186923234458469
13.755432,2.508078058763179,0.1181528358966876
13.757807999999995,2.518834632457808,0.1176074926686747
13.760199999999998,2.528660040592658,0.1170910822658587
13.762587999999996,2.541418715033703,0.1164858986979219
13.764979999999998,2.5543171591016085,0.1158533251222832
13.767384,2.5684263079830125,0.1151430712466673
13.769772,2.5773205505580843,0.1146407502758457
13.772151999999998,2.5863545627600164,0.1141198519435925
13.774548,2.60032394201456,0.1134440794749766
13.776932,2.6146654083214425,0.1128110079749733
13.779311999999996,2.6257940690684087,0.1123172483939793
13.781707999999998,2.6387850609349317,0.1117838625839868
13.784095999999998,2.656431880600345,0.111157079539988
13.786488,2.67421846989262,0.1105236443245461
13.788892,2.69372762067759,0.1098661467785178
13.79128,2.712305605902783,0.1092450749703747
13.79366,2.7298126559413367,0.1086590069038697
13.796063999999998,2.742104799673558,0.1082545840710885
13.798451999999996,2.752953921166804,0.1078387873055816
13.800832,2.763011646727131,0.1074352223736212
13.803227999999995,2.767063070048208,0.1072156317622572
13.805616,2.77418752930234,0.106903523629308
13.807996,2.7813119885564728,0.1065926353061335
13.810392,2.784851555198352,0.1063424662645757
13.812776,2.792535092959925,0.1059672465344248
13.81516,2.803291666654553,0.105504046298778
13.817552,2.817121276282237,0.1049467495666611
13.81994,2.828948785163504,0.1044409213108862
13.822323999999998,2.8358409269921583,0.1040686342614558
13.824728,2.843292147328255,0.1036226706522073
13.827112,2.852093842104709,0.1031050328023774
13.829491999999998,2.8581020402018296,0.1026475370440998
13.831896,2.8563813745670026,0.1023758398476679
13.83428,2.8505167378124816,0.1022284452316812
13.877292,2.608119160771931,0.1021118262725209
13.879672,2.599181488084355,0.1020406639461747
13.882068,2.596250117636029,0.1018093587320586
13.884456,2.5882436105082305,0.1017201045226592
13.886836,2.5831703696866275,0.1015583641936358
13.889232,2.58061108629064,0.1013778588812179
13.891616,2.5819162347606244,0.1011098166344367
13.893999999999998,2.579217181737776,0.1009478435150889
13.896396,2.5765181287149272,0.1007845179660477
13.898784,2.5787544427446907,0.100493073472542
13.90118,2.583644483826929,0.1001600254258923
13.903584,2.5922591871482803,0.0997477117697966
13.905967999999998,2.595519214536439,0.0995229641353807
13.908348,2.601852277857653,0.0992033206704131
13.910752,2.6120497730448404,0.0987914170589944
13.913135999999998,2.6241095993515846,0.0983388484456157
13.915519999999995,2.634167324911912,0.0979503159318197
13.917924,2.643154115285601,0.097597795859435
13.920308,2.6481367041664563,0.0973599497257969
13.922687999999996,2.64832369562156,0.0972301437187606
13.925083999999998,2.65037301819622,0.0970658076349587
13.927471999999998,2.6513514055842413,0.0969382685498619
13.929852,2.648325591479429,0.0969169918579954
13.932256,2.653168410733424,0.0967041873565248
13.934644,2.658942395547197,0.0964786994965254
13.937023999999996,2.665787315547609,0.0962232432624846
13.939428,2.671561300361382,0.0960084626695151
13.941812,2.680687860361932,0.0956781627102464
13.944191999999996,2.6948895570419533,0.0952215628949076
13.946587999999998,2.705226821856001,0.0948464457247302
13.948975999999998,2.719847827416603,0.0943539376031618
13.951356,2.735679537790704,0.0938231258765561
13.953751999999998,2.7565863848442764,0.0931651421058878
13.956139999999998,2.7721385559646565,0.0926553130012657
13.95852,2.783406986338483,0.0922724341460116
13.960915999999996,2.7942561078317283,0.0919393075479449
13.963303999999995,2.8048256900712536,0.0916399225302851
13.965684,2.8152555026839177,0.0913536071620947
13.968087999999998,2.826476711229501,0.0910667916757084
13.970475999999998,2.8438439916411955,0.0906219971128853
14.0063,2.8239193236913813,0.0904727365867342
14.008696,2.822616071079266,0.0904345252344758
14.011091999999998,2.8214525880940107,0.0903802474112171
14.013479999999998,2.8224309754820323,0.0902674022702114
14.02542,2.813633072421315,0.0901509097104905
14.027808,2.819267287608228,0.0899721529794216
14.030203999999998,2.82569289872806,0.0897959774574145
14.0326,2.8341206105943075,0.0895755754668239
14.034987999999998,2.847623459140028,0.0892367061958196
14.037367999999995,2.863407947685886,0.088826668214261
14.039763999999998,2.879844062537801,0.0884401297268804
14.042151999999998,2.892555515150603,0.0881043680754495
14.044535999999995,2.9012627662705714,0.087847592211054
14.046931999999998,2.9122516573906774,0.0875148922321958
14.049319999999998,2.9192363470179497,0.0872704698053208
14.0517,2.9214254392194694,0.0871119757148895
14.054095999999998,2.9296208336602407,0.0868338986365078
14.056483999999998,2.937536688847291,0.0865942111389879
14.058864,2.944521378474563,0.0863654808286181
14.061263999999998,2.9527167729153336,0.086099093620695
14.063648,2.9618433329158824,0.085823511341341
14.066043999999998,2.972040828103071,0.0855190927241832
14.140111999999998,2.8266525021558766,0.0854266694672863
14.142499999999998,2.8297255380889315,0.0853643906098032
14.14488,2.837222084395401,0.0851853661322863
14.147275999999998,2.8517958681277604,0.0848738506969476
14.149663999999998,2.863576155180784,0.0845896757681412
14.152044,2.882713218913417,0.0841367184552554
14.154448,2.9018502826460506,0.0836861730496064
14.156835999999998,2.9195443241397085,0.0832053255688852
14.159215999999995,2.9349567256332287,0.08279168576886
14.16162,2.952371227873165,0.0823418826245434
14.164008,2.969506190859382,0.081932918824907
14.166387999999998,2.9877120890322373,0.0815112363870115
14.168784,3.0061975264588128,0.0810555773752417
14.171172,3.028687165378222,0.0805289651189009
14.173551999999995,3.054948688364988,0.0798608404454817
14.175947999999998,3.084143477657948,0.0791508884997617
14.178335999999998,3.1153403676973257,0.0784104754338435
14.180732,3.139180481057094,0.0778300027569106
14.183128,3.157154061804472,0.0773468937813582
14.185516,3.169400879566319,0.0769382131615774
14.187896,3.181787466955027,0.0765187682942996
14.190292,3.188260299903101,0.0762811055826395
14.19268,3.189797765798564,0.0761205589632084
14.195059999999998,3.186539634268273,0.0760201624320802
14.197456,3.187006164977097,0.0758839411353984
14.199844,3.1843996597528657,0.0758034594256545
14.202223999999998,3.182724320088413,0.0757146149474115
14.204619999999998,3.1819801459837374,0.0756166126343212
14.207007999999998,3.182074589640224,0.0754315356495842
14.209404,3.18230880292357,0.0752335332965029
14.2118,3.1808204547142203,0.0750387238417455
14.214188,3.172534408332702,0.0749278173125365
14.216568,3.1662504626976,0.0747860438277803
14.218964,3.158243955569802,0.0746453576602401
14.221352,3.1522395491884208,0.0744754822105536
14.223736,3.143441646127705,0.0743266662180361
14.226132,3.134503973440128,0.0741910143017473
14.228516,3.1333423863127416,0.0738846607164234
14.230899999999998,3.137675244745408,0.0734663412869328
14.233296,3.143870434297632,0.073029539162931
14.23568,3.147411896797379,0.0725987075253082
14.238076,3.1550047826182053,0.0720238152764081
14.240479999999998,3.163528833998809,0.0714379408331458
14.242863999999996,3.171261489446494,0.070840961291001
14.245244,3.180344619334538,0.0702038152025348
14.24764,3.190638454036081,0.0695378192722892
14.250028,3.202142993551123,0.0688480546368919
14.252408,3.2165807993723603,0.0681318749324813
14.254804,3.2324616274325733,0.0674490649808768
14.257188,3.2463403547463696,0.066793464034957
14.25958,3.2595674557541083,0.0661178396158366
14.261975999999995,3.278661089374237,0.0653803750812867
14.26436,3.297894492621225,0.064639891828087
14.26674,3.316056960681576,0.0639186780556753
14.269136,3.3279335872489555,0.0632961891412319
14.27152,3.341812314562752,0.0626532528421448
14.273916,3.3538287107569915,0.0620213088074243
14.276308,3.3591399565776787,0.0615239119261536
14.278696,3.359748152771232,0.061138816381519
14.281071999999998,3.360635888218506,0.060725886801975
14.283476,3.3671106170244496,0.0602926206668318
14.343207999999995,3.05792780449702,0.0600064464809457
14.345588,3.0523880329665936,0.0599339907479662
14.347984,3.0517836284887787,0.0598203461498528
14.350372,3.052110389570742,0.0597033965440395
14.352752,3.0553704169589007,0.0595635344590782
14.355148,3.059561609906838,0.0594196793168473
14.357536,3.06654629953411,0.0592658420922757
14.359932,3.072599823601603,0.0591150343916414
14.362327999999998,3.0805156787886534,0.0589588327045424
14.364711999999995,3.091225030655039,0.0587935919169324
14.367092,3.1107341814400105,0.0585555322314969
14.369495999999998,3.130243332224981,0.0583211490180494
14.371883999999998,3.150543878942871,0.0581040072952556
14.374264,3.1736379223400943,0.0578768950856597
14.376659999999998,3.201155476110732,0.0575814914052939
14.379047999999996,3.2254602243214547,0.0573339032645522
14.381428,3.250696138091956,0.057078370615423
14.383824,3.276443908541654,0.0568596778234404
14.386208,3.299118643058297,0.0566802739204099
14.388603999999996,3.322584773507858,0.0565128252920292
14.391008,3.3439090335841426,0.0563796720824368
14.393392,3.364674215152987,0.0563012320951573
14.395775999999998,3.3797126337363,0.0562506463653618
14.39818,3.3948908219464737,0.0561879974949588
14.400564,3.412350650156785,0.0560863706221711
14.402943999999998,3.433163053553871,0.0559314377869541
14.405348,3.4541152265778177,0.0557661143854469
14.407736,3.4725534421761504,0.0555805561859952
14.410116,3.486475599602451,0.0553930796176822
14.412512,3.4978837996031373,0.0551886229850868
14.414896,3.508500603670905,0.0549783885849992
14.417275999999998,3.515904602178758,0.0548091766000369
14.419671999999998,3.514648571394885,0.054679811065518
14.422059999999998,3.510459274304817,0.0545681013600641
14.42444,3.497190639042443,0.0545336858969809
14.426831999999996,3.4839220037800698,0.0545001229780537
14.429219999999995,3.4754489659434475,0.0544452634431881
