Time,Force,Position
15.550004,2.032524639570149,0.1678960111640381
15.552384,2.036296523637505,0.1675695878815601
15.55478,2.044584465876893,0.1670058667104935
15.557168,2.055386365541896,0.1663639393468468
15.559548,2.0688419922593724,0.1655967983334581
15.561952000000002,2.0795041222975144,0.1649439896230635
15.56434,2.0889555475221573,0.1644029289702374
15.56672,2.101200469426136,0.1637128334329042
15.569116,2.1115830602105574,0.1631218331751369
15.5715,2.120382859129144,0.1625575734385394
15.57388,2.1341180251003413,0.1616806509588094
15.576284,2.148644587004457,0.1607729438457049
15.578672,2.1638699970428736,0.1597283540486157
15.581052,2.171506312976204,0.1591362116901659
15.583455999999998,2.183146830402367,0.1582932256305269
15.58584,2.191854081522336,0.1576502941109413
15.588224,2.1925529296566366,0.1575199079400414
15.59062,2.1949743392836343,0.1573239936526397
15.593004,2.1989785407764675,0.1570875448838904
15.595384,2.206195547829217,0.1566326288026157
15.597784,2.2122490718967107,0.1561499360295647
15.600168,2.2158811863372074,0.1558693538579657
15.602548,2.223936811151118,0.1553078178729048
15.604952,2.2286870826064957,0.1548501007286862
15.60734,2.2317147925691776,0.1544511788281979
15.60972,2.243170214398107,0.1535611890901972
15.612124,2.2541137795478385,0.152636527627672
15.614508,2.2624036176450955,0.1518173369448192
15.616892,2.2739062613022685,0.1508125437921801
15.619296,2.2904840416389134,0.1495331614602212
15.62168,2.3030576204827247,0.1484802182897548
15.62406,2.3168419041400345,0.1473517049379467
15.626460000000002,2.3280650085434864,0.1464079363328188
15.628844,2.342500918506854,0.1452417093217394
15.631224,2.3489284254845546,0.1444897930703772
15.633628000000002,2.355495702089115,0.1437148456310899
15.636016,2.3639253098132325,0.142847335758305
15.638396,2.3694216512311543,0.1421347770400657
15.6408,2.3751975319027974,0.1413841055506372
15.643188,2.382044347761078,0.1405883197335924
15.645568,2.386749293246082,0.1399136516343449
15.647972,2.3917337779848067,0.1391992822152944
15.65036,2.393365687536756,0.1387060302499382
15.65274,2.392576187461707,0.1383713482835274
15.674244000000002,2.3500315902549698,0.1382063866244628
15.67664,2.347844393911319,0.1380991060858639
15.679028,2.354876305366834,0.1375548901616896
15.681408,2.361908216822349,0.1370125948209049
15.683804,2.369079897904725,0.1364492364394425
15.686191999999998,2.373038773427185,0.1360399843516907
15.688572,2.375786944136146,0.1357136959830505
15.690976,2.375042770031471,0.1356037430281332
15.69814,2.3721113995831447,0.1353884020098182
15.700527999999998,2.3732295565980266,0.135206934172413
15.702908,2.375418648799547,0.134969290071781
15.705308,2.377095884321869,0.1346970805943199
15.707692000000002,2.377562415030693,0.1345045137268906
15.710076,2.3769580105528783,0.1343715015264462
15.712471999999998,2.3784954764483413,0.1341228673337097
15.731584000000002,2.370628738947403,0.1340756015483984
15.736368,2.374073861932796,0.1339909820497968
15.738748,2.3763555019329328,0.133858810925266
15.741143999999998,2.379568307492849,0.1336995932467664
15.743531999999998,2.39186045122507,0.1331449353392919
15.745912,2.4020107245840143,0.1326974722351266
15.748312,2.4128126242490167,0.1322703270189233
15.810416,2.4443740179092552,0.132028907118423
15.812812,2.449728693842448,0.1317837818978129
15.8152,2.4602982760819727,0.1313043683819176
15.817595999999998,2.466584117574944,0.1310252674497613
15.819992,2.474732290187471,0.1306915906076215
15.822375999999998,2.477945095747387,0.130542747696571
15.82476,2.4834395413074395,0.1302702719904517
15.827156,2.4910758572407694,0.1298985724544174
15.82954,2.50415939690591,0.1293708220720359
15.83192,2.518453641384548,0.1287909328821824
15.882108,2.4382960223079486,0.1285406123946169
15.884512,2.4366679044717383,0.1283493401665317
15.886896,2.437181657008806,0.1280661206120601
15.88928,2.4406286758520674,0.12767732037803
15.891676,2.443144529135551,0.1273110693036424
15.89406,2.4475227135385915,0.126884745739469
15.896439999999998,2.454973933874687,0.1263440846388276
15.89884,2.4614939886510045,0.1258283305289327
15.901224,2.4726698712262136,0.1251798707128835
15.903604,2.491854156787091,0.1242442684834431
15.906,2.513971708654162,0.1231979228837175
15.908388,2.53795159164079,0.1221008936575724
15.910772,2.5576477338808647,0.1212096445813531
15.913168,2.5772041064940785,0.1203442613130393
15.915556,2.6010442198538466,0.1192972400854396
15.917936,2.6259552684002534,0.1182301101847926
15.920336,2.6520770217601592,0.1171093926000372
15.922719999999998,2.6754052784407296,0.1160758052861167
15.925104,2.6965916647480226,0.1151390997931424
15.927499999999998,2.71442547586854,0.1143517730893568
15.929884,2.733330222175696,0.1135398691557063
15.93228,2.749721011057238,0.1127797089536823
15.934684,2.7618280591922257,0.1121870866267885
15.937072,2.777147912887129,0.1114863482985913
15.939452,2.797542903261504,0.1106302613010413
15.941856,2.8211506991957944,0.1096751357316509
15.944244,2.8386124232639744,0.1089217730220883
15.946624,2.858355787332292,0.1080780052268514
15.94902,2.8714412228553003,0.1073947100886254
16.008755999999998,2.6107527832747555,0.1069727558147766
16.011136,2.6063311687592106,0.106837424991782
16.073256,2.546279521513921,0.1068017943648715
16.07564,2.555963264164042,0.1066587782393462
16.078036,2.5685802731203577,0.1064386391297978
16.080424,2.579334950957117,0.1062608062219562
16.082804,2.5990291973393216,0.10584243322821
16.0852,2.6199341485350254,0.1053619240819975
16.087592,2.642701430850286,0.1048490015349172
16.089972,2.6654687131655463,0.1043494306701422
16.092368,2.687165060294168,0.1038879870540809
16.094756,2.707930241863012,0.1034539235358261
16.09714,2.727484718618356,0.1030678683865645
16.099536,2.748901526493258,0.1026355833813105
16.10192,2.770178564741298,0.1022340323705452
16.104304,2.787171862242786,0.1019776380112508
16.1067,2.808169361237107,0.1016104314620107
16.109088,2.833822688030319,0.1011502692635511
16.111484,2.865622086689642,0.1005158671919346
16.113879999999998,2.9006342909088803,0.0997749317939959
16.116268,2.9293606536351486,0.0992490862198448
16.118648,2.951940944495305,0.0989029302766911
16.166436,3.054078241669983,0.0987594063691636
16.168816,3.0511921971920324,0.098725973734779
16.17122,3.0485856919678005,0.0986616984117012
16.173604,3.044396394877733,0.0985961290277443
16.180776,3.0233082439426644,0.0985547192455041
16.183156,3.01753615498676,0.0984885006539944
16.185552,3.0109726700979382,0.0984217463243356
16.18794,3.008273617075089,0.0982768370598724
16.19032,3.009299226291354,0.0980699604756022
16.192724,3.012838792933233,0.0978514771598311
16.195108,3.015027885134754,0.0976971003059094
16.197492,3.0193588477095514,0.0974821194568773
16.199888,3.024760745470987,0.097238201260655
16.202276,3.0341668447252563,0.096905878086177
16.204656,3.045435275099082,0.0965489850766521
16.207052,3.0559123095399903,0.0961977137134389
16.20944,3.068950523234756,0.0957492094450967
16.211836,3.092790636594524,0.0950949257199523
16.214232,3.1094137429015425,0.0946158818117727
16.216616,3.1249659140219226,0.0941735001971822
16.218996,3.1385159843958865,0.0937689153370813
16.221392,3.154999321076045,0.0933114686670977
16.22378,3.171762197009924,0.0928264838576087
16.22616,3.197464641489249,0.0921715961639412
16.228556,3.2223756900356557,0.091507526024134
16.23094,3.244073933022147,0.0909257510857795
16.233336,3.2656324063817777,0.0903549889437129
16.235736,3.284676922315793,0.0898005792145661
16.238124,3.3012074808241945,0.0892590958648665
16.240504,3.313501520414285,0.0887405373223361
16.2429,3.322490206645844,0.0882241823990429
16.245288,3.329756331384706,0.0877194891335121
16.247668,3.336231060190649,0.087215599257285
16.250068,3.343916493810091,0.0866832186923145
16.252456,3.34922773963078,0.0861461696574083
16.254836,3.351745488772133,0.0856420012127569
16.257232,3.350119266793792,0.0852242915819271
16.259619999999998,3.338901849963947,0.0849404226726969
16.262,3.330897238694019,0.0845813284848341
16.264396,3.319167965184976,0.0842622188744344
16.266784,3.311582662795628,0.0838583932308315
16.269168,3.3049285259660577,0.0834466877242555
16.271564,3.298414158763348,0.083020617823003
16.273952,3.2872439637617465,0.0826452595096746
16.276332,3.2802177398798387,0.0821917519851292
16.278732,3.280688062304401,0.0815866395469164
16.28112,3.283579794355961,0.0809122389849171
16.283516,3.290196188646634,0.0802107014764726
16.285912,3.2977437484970853,0.0795010277958861
16.2883,3.3059429346535945,0.0788055687676496
16.290684,3.3169356174894387,0.0780815612440711
16.293076,3.327788530698423,0.0773685903487253
16.295464,3.337850047974489,0.0766517100546728
16.297844,3.3406945581978054,0.0760567598652086
16.300248,3.342979989913681,0.0755132761206897
16.302632,3.3469879831222538,0.0749655160751445
16.305012,3.3537894730101607,0.074393696090307
16.307408,3.36552632995068,0.0737528171829087
16.309796,3.3771234172643383,0.0731276918713963
16.312176,3.39351610200375,0.0724511477609224
16.31458,3.405904585250326,0.0718352005779144
16.316968,3.4142888670040694,0.0712769024839187
16.319348,3.4194603431978976,0.0707773852860567
16.321744,3.4243522801380046,0.0703064823380757
16.324132,3.427893742637753,0.0698883922103278
16.326512,3.4250095940176704,0.0695934088519091
16.328916,3.420635201330369,0.0693572365591381
16.331304,3.40811263603054,0.0692343353006414
16.333684,3.3954503011038497,0.0691231556835686
16.336088,3.384929836550437,0.068972484294853
16.338472,3.378925430169056,0.0688066006826344
16.340856,3.373060793414535,0.0686267567062037
16.343252,3.367847782966072,0.0684660357115594
16.34564,3.3667787436373025,0.0682428050707051
16.348019999999998,3.365849473935393,0.0680054423901233
16.350424,3.3639890386737057,0.0677730919126574
16.352812,3.3601265026656018,0.0675647281247476
16.355192,3.3558446577769168,0.0673958489292277
16.357588,3.3506316473284543,0.0672316484135975
16.359972,3.3404832698273785,0.0671187271993573
16.362356,3.33233699307272,0.0669811779035599
16.364752,3.326332586691339,0.0668062849969999
16.36714,3.324052842549071,0.0666097973187849
16.36952,3.3187000624737477,0.0664540401022028
16.371924,3.3122763472117853,0.0663168675956177
16.374312,3.304921466390045,0.0661841426840743
16.376692,3.2997084559415817,0.0660147651365218
16.379088,3.301712452545868,0.0657410506719924
16.381476,3.3046476147099324,0.0654634047493118
16.383856,3.304090432060361,0.0652667603877028
16.38626,3.295012989745924,0.065129206739543
16.388644,3.2904516056035185,0.0649804146309983
16.391028,3.2846795166476146,0.0648623040726362
16.393424,3.279559053997768,0.0647653845853012
16.395808,3.273088116907563,0.0647123770100987
16.398188,3.2674085757502755,0.0646673928261749
16.400592,3.2627999697796275,0.0646040853908131
16.40298,3.2572601982492007,0.0645457195420525
16.405359999999998,3.2545139233981093,0.0644728713044292
16.407756,3.2565632459727687,0.0643630602950798
16.41014,3.2581932596668484,0.0642927556635031
16.41254,3.262616770040263,0.0642101335666384
16.414936,3.266248884480759,0.0641194774970283
16.417324,3.274816365973867,0.0639804928762935
16.419704,3.2864568834000307,0.0638052340719953
16.422108,3.3008908975055293,0.063616349649371
16.424496,3.3119723364242524,0.0634924442223238
16.426876,3.319701200156199,0.0634335970938433
16.429272,3.3244967975819515,0.0634000643652474
16.43166,3.331434265380981,0.0633314980070241
16.43404,3.340094294672707,0.0632651060780043
16.436436,3.3430275609789004,0.0632389689169792
16.477048,3.38362486269894,0.0632264181577642
16.479444,3.390794647923446,0.0632198885718282
16.481832,3.404110505014063,0.0631422411701348
16.484216,3.420219858784016,0.0630527358130341
16.486612,3.438471082927244,0.0629333263842546
16.489,3.459795343003528,0.0627775412641021
16.49138,3.477255171213838,0.0626508269561004
16.493776,3.4896398627446774,0.0625788804002143
16.496164,3.4990912879693203,0.0625295238748449
16.498544,3.506540612447547,0.062499196931546
16.50094,3.520927404724803,0.0624064135697108
16.503328,3.5313099955092246,0.0623512725269436
16.505724,3.537967924054533,0.0623120650377065
16.50812,3.5479784277866173,0.0622124847247436
16.510508,3.557337305212644,0.0620917924588758
16.512888,3.568698283385087,0.061950605881717
16.541552,3.5004927759536613,0.0619060917544696
16.543948,3.497746501102569,0.0618362024838058
16.546336,3.4990044277443118,0.0617291641404688
16.548732,3.493185116960164,0.0616931193830992
16.551128,3.4955139787885443,0.0615713048940364
16.553512,3.4990535454304244,0.0614224169597312
16.555896,3.4995200761392478,0.0613074317889664
16.558292,3.50091777240785,0.061189145854027
16.56068,3.5016638423703936,0.0610508424830585
16.56306,3.5099064586394086,0.0608069636842004
16.565456,3.515215808602227,0.0605838287834561
16.567844,3.526391691177436,0.060317860528438
16.570224,3.5399889833796423,0.059997201838603
16.57262,3.55372604520871,0.0596663218897034
16.575008,3.566252402224278,0.0593596067761553
16.577404,3.575193866627592,0.0590513565527824
16.5798,3.582552539165071,0.0587255525111034
16.582188,3.591401455769769,0.0583452019350552
16.584568,3.597456875695132,0.0579754342606404
16.586964,3.605514396366912,0.0575912884289185
16.589352,3.6115698162922745,0.0572257023125183
16.591732,3.6076147324855534,0.0569460273540285
16.594128,3.601285460880077,0.0566381155646891
16.596519999999998,3.6004506348346537,0.0562465535631448
16.5989,3.5926783409902017,0.055906862595023
16.601296,3.5810416152797746,0.0555835383580008
16.603684,3.5675425584497926,0.0552611955596928
16.606068,3.552972566433171,0.0549519046316208
16.608464,3.5385423440434103,0.054628626181661
16.610852,3.521830481653512,0.0543443822362756
16.613232,3.5104732951968067,0.0539914643025724
16.615632,3.4941807416874893,0.0536683446755717
16.61802,3.4765377137378124,0.0533802477995764
16.6204,3.456613045787998,0.0531288903640827
16.622804,3.438690478584601,0.0528620546730714
16.625192,3.424352803993456,0.0525998585342229
16.627572,3.408664654961953,0.0523732379124152
16.629972,3.394978606676868,0.0521296860250404
16.63236,3.3814323280186422,0.0518715801168001
16.63474,3.361879747121165,0.0516552197069204
16.637135999999998,3.34125623103705,0.0514500792545682
16.639524,3.3277099523788243,0.051185030678572
16.641908,3.3134648255862973,0.0509795837891317
