Time,Force,Position
18.02534,5.508885151219088,0.1655954906227835
18.027736,5.548640043462227,0.1651871451745928
18.030124,5.574338696225814,0.1647521568502789
18.032508,5.580717085517401,0.1646251540296127
18.034904,5.582347099211481,0.1645538357334723
18.037288,5.581138290255852,0.1644477495725687
18.049236,5.558053726147971,0.1642837116405807
18.051624,5.564524663238176,0.1642013592621233
18.054004,5.575326562903178,0.1639492201643012
18.056408,5.589248720329479,0.1635659134775187
18.058796,5.600190389621343,0.1633011023325418
18.061176,5.614669729697215,0.1630253024700692
18.063572,5.633757675743736,0.1627051950321693
18.06596,5.655778888096452,0.1623199363838539
18.068344,5.674402199292019,0.1619496693702446
18.070744,5.688928761196134,0.1616385268234109
18.073132,5.699031812726837,0.1614517548544762
18.075512,5.716025110228323,0.1611635243111204
18.077912,5.732831416274706,0.1609366447572993
18.0803,5.757785894933618,0.1605185056743097
18.082684,5.788002501727104,0.1599280399845874
18.085088,5.819057726281752,0.1592901159809772
18.087476,5.848250619716845,0.1586953612173945
18.089856,5.881400492816526,0.1580651267785896
18.09226,5.924141560767713,0.1572582247195654
18.094648,5.97223730465209,0.1563253482152619
18.097028,6.020520039991572,0.1553523773067987
18.099424,6.063774860479826,0.1544498972703069
18.101812,6.107169450594938,0.1535542454991589
18.104192,6.150237279628087,0.152728992818444
18.106588,6.200335124258882,0.1518043243879705
18.108976,6.249129716277562,0.1508910629214992
18.111356,6.29424686788537,0.1499950052118276
18.113752,6.336710292440704,0.1491428704049962
18.11614,6.3747502066226245,0.1483986319222227
18.118524,6.4090182367371895,0.147757299178334
18.12092,6.447522785770063,0.1470707158949636
18.123308,6.482302672563825,0.1464545632133553
18.125688,6.518712573051664,0.1457846058765411
18.128088,6.549255940927115,0.1452245593062676
18.130476,6.578309064735349,0.1447256201166368
18.132856,6.604381700409141,0.1443267669224611
18.135256,6.63105874056075,0.1439773150280726
18.13764,6.6580153199660765,0.1436167452799259
18.149592,6.694325089223824,0.1434519505589649
18.151976,6.706056258590735,0.1433831520962742
18.154356,6.713598130867578,0.1433140538615958
18.15676,6.717135801651589,0.1433130609911657
18.159148,6.725701387286828,0.1432668140872721
18.161528,6.733335807362288,0.1432332597278098
18.163928,6.741901392997527,0.1431858774759524
18.166316,6.757404446431795,0.1430228898610303
18.168696,6.769881685761249,0.1428740620022024
18.171092,6.776911701358896,0.1427936412711337
18.173476,6.781380537702685,0.1427795516250659
18.17586,6.792786841845502,0.1426518224489368
18.178256,6.79860615262965,0.1426013910239348
18.180644,6.805915707481015,0.1425063611832898
18.183024,6.812760627481427,0.1423583681477173
18.18542,6.814298093376888,0.1422714378969317
18.187808,6.821794639683358,0.142124298648193
18.190204,6.831433056363106,0.1419339003174409
18.1926,6.839907990057596,0.1417288355837448
18.194988,6.847591527819171,0.1415305713100695
18.20216,6.834653445354499,0.1413844668865787
18.20454,6.830883457145012,0.1413583404356646
18.206936,6.82501882039049,0.1413305723895765
18.209328,6.820364888449468,0.1412741847523784
18.211708,6.8179925965085815,0.1411685750898368
18.214104,6.811523555276247,0.1410946402349711
18.216492,6.808639406656163,0.1409786737946101
18.218872,6.811621790648472,0.140771747014312
18.221272,6.811718130162828,0.1405665870785168
18.22366,6.80278235333312,0.1404712439211729
18.22604,6.7970593820633285,0.1403142757858372
18.228436,6.790824554114339,0.1401461264442995
18.230824,6.7869639139641045,0.1399645992129128
18.233204,6.785477461612623,0.1397689087277405
18.235604,6.788554289261418,0.1394785929514806
18.237992,6.788465533178538,0.1392047893689442
18.240372,6.790099338588356,0.1389137331688453
18.242772,6.788799877691978,0.1386672340679517
18.24516,6.791504618288435,0.1383564094371174
18.24754,6.801518913736257,0.1379517329202297
18.249936,6.81358253175874,0.1374710857610722
18.252324,6.817684968623799,0.1370784552200765
18.254708,6.817783203996024,0.1367505752197156
18.257104,6.819883540114666,0.1363916539763637
18.259492,6.823194581046806,0.1360072619628003
18.261876,6.8282281834716425,0.1356075630747986
18.264272,6.825952231045113,0.135295838724296
18.26666,6.822233256379609,0.1349847314282087
18.26904,6.824241044699633,0.1345947548284989
18.271436,6.833278848617303,0.1341332594827093
18.273828,6.843247818094751,0.1336620551020941
18.276212,6.852937248318479,0.1332075130489688
18.278616,6.85503758443712,0.1328525995427681
18.281004,6.858256077570644,0.1324366628881671
18.283388,6.856818742905276,0.1320801731862566
18.285784,6.862690963091273,0.1316417595603686
18.288172,6.867771787344354,0.1312070288276971
18.290556,6.876205186784209,0.1307085395068649
18.292952,6.8837074206642885,0.1302249930899974
18.29534,6.890697797865166,0.1297314436685953
18.297724,6.896197930998826,0.1292790721855042
18.30012,6.9079366837972165,0.1287645148690893
18.302508,6.920466832528523,0.1282428466235402
18.304892,6.928341153460937,0.1277764202495252
18.307288,6.929138236967464,0.1274155842526164
18.30968,6.924999953421377,0.1271237707937841
18.31206,6.923235857674046,0.1268200702841754
18.355076,6.669029730330921,0.1266710941645033
18.35748,6.666470446934934,0.1266097313027245
18.359868,6.664330472419526,0.1265252975725198
18.362248,6.6616786412249205,0.1264286250688543
18.364648,6.661028910776731,0.1263028918218969
18.367036,6.6622415114481,0.1261551314320421
18.369416,6.665456212865884,0.1259777489039825
18.371812,6.671324641336144,0.1257765159293935
18.3742,6.678124235366182,0.1255662765411117
18.376576,6.687485008650077,0.125296889929579
18.378972,6.698056486747471,0.1250014708001325
18.38136,6.708348425591146,0.124721691508381
18.38374,6.718221055554239,0.1244660053384758
18.386136,6.735822549249279,0.1241114143095707
18.388524,6.7506305462649845,0.1237866617925254
18.390904,6.763715981787993,0.1234759469853725
18.393308,6.783878654736891,0.1230651206355215
18.395696,6.806043428432205,0.1226281736534154
18.39808,6.830070533247077,0.1221759671445628
18.400476,6.851304141382613,0.1217557209958968
18.402864,6.871746353585231,0.121344500252174
18.40524,6.888463903548736,0.1209732290533328
18.407648,6.908766346124494,0.1205731455798433
18.410032,6.9307913501929495,0.1201642429864159
18.412416,6.95588939019446,0.1197160563604745
18.41482,6.986853962808361,0.1192022738253683
18.417208,7.019960405795538,0.118659351293502
18.419588,7.051344287290018,0.1181313204425455
18.421984,7.080726068038083,0.1176321227515027
18.424372,7.111690640651982,0.1171347395930813
18.426752,7.142515443639023,0.1166456299160554
18.429156,7.176692821812839,0.11610651089869
18.431544,7.2145023144271505,0.1155067494699409
18.433924,7.248587144802349,0.114947209154374
18.43632,7.286117098162941,0.1143647230981762
18.438708,7.323087973016092,0.1138076826308791
18.441088,7.351910675256715,0.113357717741578
18.443496,7.375658240817866,0.1129702733204192
18.491268,7.320683626109919,0.1127570690355148
18.493664,7.322640400885962,0.1126638385158372
18.496052,7.321803678982669,0.112594203582342
18.498436,7.330325834505404,0.1124082984833492
18.500832,7.337125428535442,0.1122327386456486
18.50322,7.348068993685175,0.112005024743369
18.5056,7.359431867715487,0.1117575672946958
18.508004,7.369072180253103,0.111517249947373
18.510388,7.378572723163858,0.1112821525684074
18.512772,7.385139999768418,0.1110778887742268
18.515168,7.389844945253423,0.1108887879676391
18.517556,7.395900365178787,0.1106714015542831
18.519936,7.404749281783484,0.1104282435271837
18.522332,7.411037019134324,0.1102350725283046
18.52472,7.421608497231718,0.1099819083252426
18.5271,7.437766968687781,0.1096792509986011
18.529496,7.45071263458393,0.1094213774424809
18.531884,7.461795969360521,0.1091799813633585
18.534268,7.468363245965083,0.1089729403289815
18.555768,7.368231841252559,0.1088932989697775
18.558172,7.36157580856512,0.1088425332974658
18.56056,7.35613048069118,0.1087709033080207
18.56294,7.3537581887502945,0.1086633749600925
18.565344,7.352456831996048,0.1085418995675363
18.567732,7.356370381548134,0.108357846564973
18.570116,7.361494635913719,0.1081528215807431
18.572512,7.364616789532887,0.1079693478914327
18.574896,7.364154050539801,0.1078087507525552
18.57728,7.3646224771064945,0.1076401616221827
18.579676,7.367093004419607,0.1074503313664345
18.582064,7.370075388411914,0.1072723471825743
18.584448,7.374780333896918,0.1070858481501743
18.586844,7.377063869754925,0.1069398764416155
18.589232,7.382280671919126,0.106764581375966
18.591612,7.389499574829744,0.1065670680432349
18.749308,7.477624062637373,0.1064597066510508
18.751704,7.483163834167799,0.1064559577197667
18.754092,7.494198051258279,0.1063802217849413
18.756472,7.512169736147787,0.1062386458151493
18.758868,7.532562830664293,0.106058942626352
18.761256,7.556028961113855,0.1058467650555688
18.76364,7.586153020108725,0.1055800717693862
18.766036,7.617999640596292,0.1053058044392218
18.768424,7.650125800337578,0.1050188786670038
18.770804,7.687047557504617,0.1046954884255319
18.773208,7.727741198739012,0.1043106982524225
18.775596,7.7651294866148755,0.103931934773503
18.777976,7.805311271170072,0.1035354643598668
18.780372,7.842420019792213,0.1031737716620805
18.78276,7.880739473227854,0.1027914715849404
18.785144,7.920129861850133,0.1023974568904513
18.78754,7.959380480845552,0.1020108778401512
18.789928,7.991693632041942,0.101688199046609
18.792308,8.022656308797975,0.1013929292922164
18.794708,8.047612683314755,0.1011552978309202
18.797096,8.067493921152062,0.1009695476598168
18.799476,8.08709561973565,0.1007961471663104
18.801872,8.101482412012905,0.1006818165615008
18.80426,8.110002671677771,0.1006188513529421
18.80664,8.118522931342635,0.1005567481700764
18.809044,8.125180859887944,0.1005074408829812
18.811432,8.132258097313834,0.1004410516820305
18.813816,8.138963247687384,0.100357148228526
18.828148,8.127186752350099,0.100285945515099
18.830548,8.122717916006312,0.100274139056992
18.832936,8.120251180408939,0.1002446678207352
18.835316,8.118343523319009,0.1001918359562986
18.837716,8.124444269214745,0.1000694046785018
18.8401,8.130964323991062,0.0999299233263714
18.84248,8.13869508358088,0.0997717136407918
18.844884,8.148847252797692,0.0995779970402436
18.847276,8.158487565335308,0.0993722851315436
18.849656,8.167196712313148,0.0991721305596484
18.852056,8.177907960037402,0.0989544734546419
18.85444,8.187548272575018,0.0987497834953474
18.856824,8.196117649925995,0.0985565601099866
18.85922,8.200543056157278,0.0984046944301487
18.861604,8.206411484627537,0.0982594884221648
18.863988,8.212931539403854,0.0981209801030627
18.866392,8.224526730859644,0.0979366823558669
18.86878,8.2441303253011,0.0976842738682597
18.87116,8.26294252380964,0.0974342788177041
18.873564,8.284548218997514,0.0971684305674058
18.875952,8.307736706051223,0.0969034199311168
18.878332,8.331716589037853,0.096640619714341
18.880728,8.350900874598729,0.0964117352792308
18.883116,8.369665851279025,0.0962011644240877
18.885496,8.387499662399543,0.0959989500369282
18.887892,8.404262538333423,0.0958083687386724
18.89028,8.42917358687983,0.0955506028881457
18.89266,8.45860069359827,0.0952761677815031
18.895056,8.493754563302238,0.0949692480028499
18.897444,8.532912634499038,0.0946330535768903
18.899828,8.57235024494956,0.09428829606428
18.902232,8.611787855400083,0.0939453326978698
18.90462,8.656440372156936,0.0935593767549811
18.907,8.703374528913928,0.0931484812240356
18.909396,8.750867764178361,0.0927201983271502
18.911784,8.797849142763596,0.0922837322984203
18.914164,8.84590145653547,0.0918425963233741
18.91656,8.893162374374427,0.091408156580483
18.918948,8.939631896280462,0.0909767373456613
18.921332,8.983447691134026,0.0905551047841999
18.923728,9.028753730054808,0.0901114700238609
18.92612,9.073547912296393,0.0896602885199994
18.9285,9.121275360844171,0.0891912326094935
18.930896,9.167699556779834,0.0887114506017638
18.933284,9.20760559379705,0.0882623160407028
18.935668,9.249933040441263,0.0877871800887955
18.938064,9.284391853726673,0.0873654894078239
18.940452,9.314334608840044,0.0869632462906449
18.942836,9.339761305781384,0.0865801214511823
18.945232,9.362813814923973,0.0861965611424712
18.947624,9.38721679850692,0.0857973094159882
18.950004,9.411107925410672,0.0853884206723744
18.9524,9.432065786008229,0.0849994517853113
18.954792,9.45302364660578,0.0846124237264262
18.957172,9.472119176083778,0.0842348853708526
18.959572,9.491354475188636,0.0838544545575873
18.96196,9.505282320188543,0.0834866813009891
18.964344,9.51641666850912,0.0831314995879743
18.96674,9.525828455336995,0.0827790963107076
18.969128,9.539523982911428,0.0823956431716688
18.971508,9.550426013806524,0.0820235488775587
18.973908,9.56239897988826,0.0816456296976992
18.976296,9.576653585970131,0.0812495990430562
18.97868,9.59277052317156,0.0808482788646441
18.981084,9.61489376261224,0.0804141178695043
18.983472,9.631941865373449,0.0800102908541317
18.985852,9.65113183850793,0.0795908480379737
18.988248,9.66766808458994,0.0791755828981312
18.990636,9.68299362585845,0.0787731614803522
18.993016,9.69803962787324,0.0783811915568697
18.995416,9.70679978839506,0.0780305919717701
18.997804,9.71555994891688,0.0776807398383029
19.000184,9.721806152013086,0.0773306094202462
19.00258,9.727540498430091,0.0769704349582351
19.004968,9.73313507522024,0.0766154661880376
19.007352,9.738078025704327,0.0762551310701784
19.009748,9.747537034360448,0.07588613620442
19.012136,9.752991841523736,0.0755363244110529
19.01452,9.7605885190603,0.0751727095469221
19.016916,9.76217889435761,0.0748394288880147
19.019304,9.762838104095149,0.0745082117213028
19.021684,9.759493112339849,0.0741968143081849
19.02408,9.752423458345437,0.0738962576419991
19.026472,9.742560307671686,0.0736028851140062
19.028852,9.731905761065024,0.0733080813335948
19.031252,9.723532854458494,0.0729937877987468
19.03364,9.715299717478826,0.0726750066101618
19.036024,9.71279334348469,0.0723379902492325
19.03842,9.708704177624716,0.0719954186677775
19.040808,9.703683846204964,0.0716549712028377
19.043192,9.704669817024463,0.0712869096505841
19.045588,9.703793456724409,0.0709230406802543
19.047976,9.70156662198399,0.0705736408432862
19.05036,9.698920478362991,0.070238226450765
19.052756,9.694272233995576,0.0699112031518193
19.055144,9.688273515187802,0.0695998278519054
19.057524,9.678270594887197,0.0693059395022213
19.059928,9.674925603131896,0.0689927986314276
19.062316,9.6667377921226,0.0687236556731903
19.0647,9.663345578539058,0.0684396244071151
19.067096,9.664329653500689,0.0681550633352447
19.069484,9.665173958835457,0.0678741538037896
19.071868,9.664528020103006,0.067612799031154
19.074264,9.66732720435595,0.067352927060381
19.076652,9.662490072675562,0.0671419250958314
19.079036,9.658164797674374,0.0669424868069401
19.081432,9.6563534800988,0.0667471013210198
19.08382,9.649187486590032,0.0665837087589412
19.0862,9.64453545050688,0.06642338036438
19.088596,9.64281668072992,0.0662533537666639
19.090984,9.640166745393184,0.0660856792673144
19.093368,9.6411017026687,0.0659157163705767
19.095764,9.648974127743248,0.0657210392185106
19.098152,9.655635848004293,0.0655369787402298
19.100536,9.66737270494481,0.0653320513758711
19.102936,9.67775908744497,0.0651416890778969
19.105324,9.68800570031827,0.064955211400975
19.107708,9.695319046885372,0.0647789015381616
19.110104,9.70919777419917,0.0645622396359886
19.112492,9.71492832890044,0.0643798098492372
19.114876,9.71386118542954,0.0642171795861027
19.117272,9.715587538637974,0.0640498122276288
19.119664,9.721457862966105,0.0638631473003942
19.122044,9.72532608654782,0.0636844755144757
19.12444,9.740275749048251,0.0634625149697556
19.126828,9.75387493710833,0.0632552430316815
19.129212,9.761328053302291,0.0630748842530221
19.131608,9.771993975056173,0.0628767538953671
19.134,9.787455494235806,0.06266836225324
19.13638,9.8006353734153,0.0624769387362474
19.13878,9.812325008527576,0.0623049975033583
19.141168,9.819730902893298,0.0621563053199106
19.143548,9.821782121325828,0.0620369501665532
19.145948,9.827837541251192,0.0619038771705931
19.148336,9.827187810803004,0.0618136330973297
19.15072,9.831613217034288,0.0617039182283128
19.15312,9.84283632143774,0.0615769845213745
19.155508,9.854059425841193,0.061450317801515
19.157892,9.860998789498092,0.0613464915504963
19.160288,9.87874005281999,0.0612117996437753
19.162676,9.902627388008002,0.0610525808640514
19.165056,9.924372852822737,0.0609046703054094
19.167452,9.943417368756752,0.0607854928973748
19.16984,9.965814459877546,0.0606466830058563
19.172224,9.981553622453028,0.060521386570654
19.17462,10.001576525775066,0.0603750445950375
19.177008,10.029887371336493,0.0601951618279537
19.179392,10.058058447271057,0.0600206063974612
19.181788,10.081573695406732,0.0598531186437145
19.184176,10.104157777982625,0.0596867407236884
19.186556,10.12702139981224,0.0595122200450853
19.188956,10.153237596828632,0.0593178892467282
19.19134,10.178382858658384,0.0591280533950111
19.193724,10.199523918995306,0.0589516154764572
19.19612,10.22443686339958,0.0587422533476061
19.198512,10.24641654149766,0.0585413888714571
19.200892,10.263740391796851,0.0583470855136273
19.203288,10.280133076536265,0.0581539289474068
19.20568,10.300669732395368,0.0579454779839267
19.20806,10.317481726015355,0.0577425193276302
19.210456,10.334945345941406,0.0575484165859992
19.212844,10.356832476240871,0.0573314269206001
19.215228,10.379558224301496,0.0570902407769547
19.217624,10.395066965309372,0.0568755096263788
19.220012,10.412158498183087,0.0566672587205753
19.222396,10.426596304004324,0.0564585433046089
19.224792,10.43288593721303,0.0562768460276885
19.22718,10.436242304115543,0.0561013847883118
19.229564,10.440250297324116,0.0559335662132304
19.23196,10.443466894599773,0.0557620804162476
19.234352,10.445752326315644,0.0555912828300428
19.236732,10.4477582187778,0.0554289717505944
19.239128,10.455910183106065,0.0552468936570171
19.241516,10.465924478553887,0.0550635880257256
19.243896,10.475379695494272,0.0548965755577901
19.246296,10.481482337247876,0.0547471547372713
19.248684,10.484372173441567,0.0546114849469266
19.251064,10.488984571127954,0.0544786533608931
19.253464,10.490384163254426,0.0543602370205276
19.255852,10.490293511313675,0.054258587972201
19.258236,10.486338427506956,0.0541635248237535
19.260632,10.477028667767042,0.0540913175589136
19.26302,10.467299599146548,0.0540309168859179
19.2654,10.460364027205392,0.0539685913412371
19.2678,10.457013347876485,0.0539082218899962
19.270188,10.454034755599915,0.0538632390009189
19.272572,10.453989429629544,0.0538125400299473
19.274968,10.455806434778724,0.0537606991253802
19.277356,10.456692274368129,0.0537094572274656
19.27974,10.461023236942925,0.0536641267862804
19.282136,10.466936991383555,0.0536257768306308
19.284528,10.471128184331494,0.053584533464926
19.286908,10.469452844667044,0.0535542766837005
19.289308,10.466054943509892,0.0535209970900698
19.291696,10.462796811979604,0.0534837501542255
19.29408,10.463962190822729,0.0534247409654754
19.29648,10.470994102278242,0.053355070182591
19.298868,10.47830555298748,0.053277767744676
19.301252,10.484546068510076,0.0532048276942701
19.303648,10.493347763286527,0.0531115402765086
19.306036,10.50308062362276,0.0530178336631929
19.30842,10.516957455078687,0.0529107896421127
19.31082,10.530042890601695,0.0528003048819817
19.313208,10.5460615924309,0.0526848458741723
19.315592,10.558774940901571,0.0525598244164314
