Time,Force,Position
18.2246,5.677499910290176,0.1615125079785659
18.227004,5.753932867127661,0.1610598000950222
18.229392,5.817892376351429,0.1605670825870372
18.267616,5.908940651175908,0.1601276566805883
18.270016,5.925467417968571,0.1599154872760499
18.2724,5.94083070177598,0.1596920416472665
18.274784,5.954518645918935,0.1594491984795714
18.27718,5.963830301516717,0.1592749300263126
18.279564,5.969230303420283,0.1592293477267053
18.281944,5.9788196024139175,0.1591736076561719
18.28434,5.990503549952587,0.1591137171873153
18.286728,5.999161683386442,0.1590767078838149
18.289128,6.0108003049547385,0.1589350196328303
18.291524,6.020204508351137,0.1588086382896003
18.293908,6.031843129919432,0.1586681950637775
18.296292,6.046228026338819,0.1585253846752473
18.298688,6.0729976142890445,0.158148074648099
18.301076,6.095018826641759,0.157815310562385
18.303456,6.118297965636217,0.1574019940370695
18.305856,6.137340585712363,0.1570469457000779
18.308244,6.1538220265346535,0.1567711634076302
18.310624,6.178124878887507,0.1563865423600882
18.31302,6.204941688665976,0.1559705201803828
18.315408,6.232736885832464,0.1554922954371322
18.317788,6.251919275535472,0.1551374640460737
18.320184,6.271009117439864,0.1547474467329362
18.322572,6.285395909717119,0.1544819961103234
18.324952,6.303599912032104,0.1541896127568268
18.327352,6.324876950280145,0.1538316294034779
18.329736,6.342476548117316,0.1534889478616945
18.332132,6.359192202222952,0.1531191708820866
18.334532,6.371159480731079,0.152789074648604
18.336916,6.373256025133982,0.1526549864178523
18.3393,6.375445117335502,0.152558922931361
18.341696,6.379776079910299,0.1524140076536697
18.346468,6.373773569386787,0.1522734660039511
18.356032,6.351618274980818,0.1522019144556309
18.35842,6.34496224229338,0.1521884834012968
18.3608,6.338632970687904,0.1521114748838811
18.363196,6.332583238336149,0.1520167727826706
18.365584,6.328815145984531,0.1518661495183443
18.367964,6.324068666244891,0.1517756682281241
18.370368,6.3277498983715,0.1515077284060565
18.372756,6.328824625273877,0.1512301851275514
18.375136,6.326873538071441,0.1509686391667038
18.37754,6.329718048294757,0.1506256545024983
18.379928,6.32976906183874,0.150326268113674
18.382308,6.336291012472925,0.1499697666329421
18.384704,6.352823466839197,0.1494265866306346
18.387092,6.367680581541015,0.1488587086877911
18.389476,6.381234443630716,0.1482897005304891
18.391872,6.397442032772894,0.1476867587911167
18.39426,6.418445219340822,0.1470037131199755
18.39664,6.437818392214671,0.1463799380800197
18.399036,6.459053896208077,0.1457249326294845
18.401424,6.47740335572353,0.1450760618476589
18.403804,6.496823750425622,0.144401398683676
18.406208,6.510098073261603,0.1438481133355738
18.4086,6.522673547963284,0.1433413459872843
18.41098,6.531616908224467,0.1429271092157923
18.413376,6.541723751470909,0.1425297117643454
18.415764,6.554811082851787,0.142040249192245
18.418148,6.560309320127578,0.1416716782781212
18.420544,6.570975241881458,0.1412497488135804
18.422932,6.584666977740151,0.1408167677521124
18.425316,6.599289879158622,0.1403766956882094
18.427712,6.614424637256291,0.1399461099410008
18.4301,6.63174848755548,0.139437739959376
18.43248,6.64213487005564,0.1390469889218672
18.43488,6.654336361847114,0.1386747812262747
18.437264,6.665839005504286,0.1383435843019292
18.439648,6.675619087668761,0.1380303158692451
18.442052,6.685027082780901,0.1377009612106673
18.44444,6.696065091587118,0.1373212596220566
18.446824,6.708872883714276,0.136884434504926
18.44922,6.724474172520768,0.1364122070302953
18.451612,6.74100662688704,0.1359281780622975
18.453992,6.761683052373005,0.1353714330661019
18.456392,6.779565981179634,0.134850367968227
18.45878,6.800149858866984,0.1342563917427925
18.46116,6.813284412076105,0.1337552409870275
18.46356,6.823857786031369,0.1333212134438728
18.465948,6.836013951852469,0.1328765189688021
18.468328,6.8407207931953415,0.1325290622747465
18.470724,6.841051345993043,0.132225624024855
18.473112,6.8344444309917165,0.1320298218046575
18.475496,6.828117055244111,0.1318177671233667
18.477892,6.816295233936452,0.1317124686922781
18.480284,6.804193873375072,0.1316230245125106
18.506568,6.612364463389879,0.1316161233906285
18.508956,6.603800773612509,0.1315258472458198
18.51134,6.592443587155803,0.1314694861448598
18.513736,6.581086400699099,0.1314131126648936
18.516128,6.573034567600928,0.1313346882381373
18.518508,6.570709497488286,0.1311794996554821
18.520908,6.571317693681838,0.1309808128720344
18.523296,6.572577516181449,0.1307861754867589
18.525676,6.571835237934643,0.1306217550680792
18.528068,6.571092959687837,0.1304564530500242
18.530456,6.576729070732621,0.1302182708750323
18.532836,6.5811544769639045,0.1300084365793595
18.53524,6.583857321702492,0.1298140418469954
18.537624,6.592426699053469,0.1295334888794383
18.540004,6.602206781217946,0.1292255510047895
18.542408,6.6077031226358685,0.1289957503889972
18.544792,6.616504817412324,0.1287436282823492
18.547172,6.620091605882445,0.1285823052799886
18.549576,6.620605358419512,0.1284701585610199
18.55196,6.622701902822416,0.1283509884523211
18.55434,6.624658677598458,0.1282398104283731
18.556744,6.618886588642555,0.1282360674157559
18.559132,6.620843363418598,0.1281260231157576
18.561512,6.628806440433891,0.1279271141373246
18.563916,6.638259761516403,0.1276867629090624
18.566304,6.6445002770390005,0.1275042073164565
18.568684,6.656607325173988,0.1272438187781724
18.57108,6.672998114055529,0.1269136940922146
18.573468,6.695255435549461,0.1265055149696682
18.575848,6.720585792976448,0.1260501344735573
18.578244,6.739258221858127,0.125679623228897
18.580632,6.755928549993389,0.1253363467948458
18.583012,6.773250504434709,0.1249975439177847
18.585408,6.789641293316252,0.1246718093930965
18.587792,6.8076148740636295,0.1243429151505527
18.590172,6.826007763691588,0.123988199486464
18.592568,6.842026465520792,0.1236429499513973
18.594956,6.860978433656191,0.1232601999401265
18.59734,6.88579693440398,0.1227984218800433
18.599736,6.913548701457964,0.1223045689714883
18.602124,6.945584209258503,0.121746539525381
18.60452,6.982415314484793,0.1211307365507744
18.606916,7.012169182285196,0.1206195347877043
18.609304,7.03363510784621,0.1202344965906437
18.611684,7.05589242934014,0.1198509910364128
18.61408,7.076007880460797,0.1194994643573454
18.616464,7.087323532662866,0.1192588677295622
18.618848,7.092213573745103,0.1191209329533634
18.621244,7.09216824777473,0.1190457535133061
18.623632,7.091983152177495,0.1189780380893437
18.626012,7.093520618072958,0.1188983614462003
18.628408,7.100133220647892,0.118749917365061
18.630796,7.109818859155882,0.1185600353604687
18.633192,7.118852871357815,0.1183660485629399
18.635588,7.124953617253552,0.1182075062679516
18.637976,7.133847859828622,0.1180210620808067
18.640356,7.14460443352325,0.1178166734538738
18.642752,7.151496575351905,0.1176564221372898
18.64514,7.160810126807558,0.1174523101281138
18.647524,7.16532808083746,0.1173012409453854
18.649924,7.162629027814612,0.1172474941797608
18.652312,7.158719269978263,0.1172164903175559
18.654692,7.158162087328693,0.1171313269980848
18.657096,7.162028415052535,0.1169759146970153
18.659484,7.166546369082436,0.1168270580854424
18.661868,7.177629703859028,0.1165791331087066
18.664264,7.193368866434512,0.1162865702467499
18.666648,7.214742244196909,0.1159036970952647
18.669028,7.239048888265501,0.1154875075902337
18.671428,7.263355532334092,0.1150735766573656
18.673812,7.286870780469766,0.1146608205658963
18.676196,7.306242057485746,0.1143052374962078
18.678592,7.323890773009029,0.1139634899303945
18.68098,7.341259949278593,0.1136362775864628
18.683364,7.359839830361653,0.1132869480665861
18.68576,7.380561581817992,0.1129112227733543
18.688144,7.400352167714553,0.112545380472442
18.690524,7.423495328797889,0.1121284904447628
18.69292,7.44314614506759,0.1117742365005709
18.695308,7.459723925404235,0.1114543555025767
18.697688,7.481516612047212,0.1110670153582243
18.700088,7.502657672384132,0.1106755272332468
18.702476,7.521377323094054,0.1103274659716566
18.704872,7.538746499363618,0.1100087989831688
18.707268,7.55080822152823,0.1097247591182826
18.709656,7.555652936640095,0.1095302974012204
18.71204,7.561708356565457,0.1093158408356211
18.714436,7.564411201304043,0.1091522335213718
18.716824,7.569255916415908,0.1089615994666683
18.719204,7.574240401154632,0.1087652465297325
18.7216,7.5802958210799956,0.1085548589544011
18.723988,7.587561945818857,0.1083238267803414
18.726368,7.5914754953709425,0.108141144133494
18.728764,7.597251376042584,0.1079443041771329
18.731152,7.602747717460507,0.1077606291448437
18.733536,7.60717312369179,0.1075924294298429
18.735932,7.613041552162049,0.1074296242381016
18.73832,7.616348801378451,0.1073134715503621
18.740704,7.617793719475297,0.1072116790426702
18.743108,7.62617610537117,0.1070401963535509
18.745496,7.631485455333989,0.106903617115338
18.747876,7.636515266043086,0.1067799648266724
18.750272,7.640753680819268,0.1066564100490988
18.75266,7.646202800408945,0.1065131974277682
18.75504,7.656167978170656,0.1063407083518596
18.757444,7.6719996885447586,0.1061128884357803
18.759832,7.685969067799302,0.1059007176493416
18.762212,7.697796576680569,0.1057147485248285
18.764616,7.704548948882365,0.1055838521396473
18.767004,7.711301321084159,0.1054537136351854
18.769384,7.72098695959215,0.1052976854112488
18.77178,7.729461893286642,0.1051611138656907
18.774168,7.742220567727687,0.104972034598727
18.776552,7.752185745489396,0.1048040405365201
18.778956,7.7633616280646045,0.1046171873358465
18.781344,7.770812848400702,0.1044578395590685
18.783724,7.774958715378264,0.1043067072836593
18.786128,7.779384121609548,0.1041425473785435
18.788516,7.7828783622810525,0.1039844972957085
18.790896,7.785301667765919,0.103840701383492
18.793296,7.789447534743483,0.103689811837723
18.79568,7.794804106534545,0.1035200754559873
18.79806,7.808169081311274,0.1032741375182931
18.800456,7.821534056088004,0.1030296042798107
18.802848,7.834107634931815,0.1027870008491679
18.805228,7.841745846723015,0.1025894081512362
18.807624,7.849384058514214,0.1023921928654327
18.810012,7.860235075865328,0.1021572063514546
18.812392,7.872157028403081,0.1019086592064753
18.814792,7.883008045754196,0.1016734466210456
18.817176,7.8877129912392,0.1015012308764194
18.81956,7.896422138217037,0.1012921312809709
18.821956,7.902849645194737,0.1011147922992938
18.824344,7.909137382545579,0.1009431285028432
18.826724,7.917427220642835,0.1007544266144138
18.829132,7.928231016165708,0.1005592404695051
18.831516,7.944761574674111,0.1003225193768995
18.8339,7.965156565048486,0.1000567974249145
18.836296,7.986622490609499,0.0997777172421904
18.838684,8.004643293185119,0.0995116906305559
18.841064,8.022012469454681,0.0992404568972507
18.84346,8.037379544977828,0.0989878105141391
18.845848,8.046740318261724,0.0987915954975075
18.910356,7.774828774277726,0.0986066562975103
18.91274,7.76575133196329,0.0985855728925927
18.915136,7.760398551887967,0.098541426786918
18.91752,7.755976937372421,0.0984913974404029
18.919904,7.752626258043514,0.0984295241176255
18.922308,7.751277679461024,0.098349924792838
18.924696,7.7508602664383135,0.0982642460298529
18.927076,7.758591026028129,0.0981011827511481
18.929472,7.766973411924003,0.0979441873961986
18.931856,7.777078359312575,0.0977829399318592
18.934236,7.794540083380754,0.0975444200623384
18.936632,7.813724368941632,0.0973005348784827
18.93902,7.831837719315868,0.0970691021383471
18.941412,7.855817602302498,0.0967898429525825
18.943816,7.879657715662265,0.0965144102425452
18.946204,7.899214088275479,0.0962872913292067
18.948584,7.919981165702191,0.096042970229179
18.95098,7.941260099808101,0.095814252519213
18.953368,7.956532731674761,0.0956374293933959
18.955748,7.9727365291012,0.0954545436774581
18.958144,7.986426369102023,0.095278239528043
18.960532,7.99196803649032,0.0951775284417609
18.962916,7.997649473505477,0.0950708658241438
18.965312,8.002259975333995,0.0949757496833611
18.9677,8.004728606789236,0.0949039954899929
18.97008,8.007197238244476,0.0948323041718931
18.972476,8.013670071192552,0.0947266688825006
18.974864,8.01613870264779,0.0946555691127005
18.977248,8.017024542237197,0.0945833593085651
18.979644,8.01111268365443,0.0945617972182308
18.982032,8.003198724325248,0.0945568097510846
18.984412,7.993562203503371,0.0945566988007452
18.986812,7.984205221935214,0.0945445646317392
18.989196,7.974056844434139,0.0945315344431808
18.99158,7.968843833985676,0.0944799024513585
19.005912,7.91675147203994,0.0944401692447339
19.008312,7.912003096442431,0.094437282393653
19.022656,7.917822407226579,0.0944287808301655
19.025044,7.925224509876562,0.0944217266216286
19.027428,7.9403554762584925,0.0943598373289064
19.029824,7.9569294648794,0.094305731955378
19.032216,7.975086245366143,0.0942527275865612
19.034596,7.994686048091862,0.0942072128107717
19.03938,8.02624933760997,0.0942005358238993
19.04176,8.0495738025748,0.0941359207061941
19.044156,8.072106871606715,0.0940710817905196
19.046544,8.101996717318238,0.0939355609044828
19.048924,8.138824030828792,0.0937489388976101
19.051328,8.174720178779566,0.0935692752829211
19.053716,8.215971002663531,0.0933374597020982
19.0561,8.260294862480553,0.0930818838164405
19.058496,8.300242433752404,0.0928413866738717
19.060884,8.339678148345056,0.0925896981615186
19.063268,8.37967294144515,0.0923165115720478
19.065672,8.42316007935888,0.0920006856564516
19.06806,8.464784886153053,0.0916976590345317
19.07044,8.500962469215416,0.0914178377134834
19.07284,8.538630296345,0.0911147424821635
19.075224,8.573644396422107,0.0908238161845079
19.077604,8.607075704633377,0.0905332645327606
19.080004,8.640926321725232,0.090227564960792
19.082392,8.673333916578109,0.0899160021490469
19.084772,8.710304791431259,0.0895550623330797
19.087168,8.748067062217327,0.0891958675321487
19.089556,8.778891865204368,0.0888880362835373
19.09194,8.809716668191408,0.0885806864288934
19.094336,8.834535168939198,0.0883176624078645
19.096724,8.855908546701594,0.0880656272655947
19.099108,8.875140054090712,0.0878327935176839
19.101504,8.889156655173501,0.087643672620316
19.103888,8.898237889203678,0.0874869948327769
19.106272,8.90932122398027,0.0873168886421029
19.108668,8.92012501950314,0.0871574604498296
19.111056,8.933862081332206,0.0869819859955247
19.113436,8.945457272787994,0.0868257893258285
19.115836,8.956121298684007,0.0866740626354418
19.118224,8.973722792379048,0.0864789526096733
19.120604,8.988763106820231,0.0863190750874833
19.123,8.99979921976858,0.0861852536476647
19.125388,9.006970900850956,0.0860723299454597
19.127772,9.012000711560054,0.0859778276638561
19.130168,9.017961687828931,0.0858796585561554
19.13256,9.019499153724391,0.0858232430402898
19.13494,9.020384993313796,0.0857605942431745
19.13734,9.02234176808984,0.0856888593684443
19.139728,9.023087838052383,0.0856312178339064
19.142108,9.02676717432112,0.0855566361985035
19.144516,9.024952065029808,0.085532421851493
19.146904,9.02634976129841,0.0854811282729605
19.149284,9.032962363873349,0.085390280816696
19.15168,9.04213614570214,0.0852663667423815
19.154068,9.050238992344292,0.0851517501621143
19.156448,9.057410673426668,0.0850408129553382
19.158848,9.06071792264307,0.0849508878096994
19.161236,9.068169142979164,0.08483146740298
19.16362,9.072687097009062,0.0847279251484862
19.166016,9.069056878426435,0.0846795597615626
19.168404,9.064775033537751,0.0846248564035931
19.170788,9.066219951634595,0.084542775171084
19.173184,9.074602337530472,0.084419862255948
19.175572,9.0860577593594,0.0842761431071779
19.177956,9.095371310815054,0.0841499819926786
19.180352,9.107106271897704,0.0839965564620228
19.18274,9.118561693726637,0.0838533470002486
19.18512,9.129877345928705,0.0837152408284575
19.187524,9.144545573317547,0.0835465780904976
19.189912,9.159353570333254,0.0833736951638302
19.192292,9.176303437722238,0.0831823486148541
19.194696,9.189249103618383,0.0830157697381778
19.197084,9.195117532088643,0.0828948332555164
19.199468,9.20042688205146,0.0827943475919602
19.201864,9.208809267947336,0.0826739177159297
19.204252,9.221335624962904,0.0825251751690308
19.206632,9.233582442724751,0.0823865103786783
19.209032,9.241825058993768,0.08227247975063
19.21142,9.253792337501894,0.0821443947946425
19.2138,9.27297662306277,0.0819674158518132
19.2162,9.291089973437009,0.0817987073547911
19.218588,9.307480762318551,0.0816332010667767
19.220968,9.31986734970726,0.0814922254942664
19.223368,9.331322771536188,0.0813554560608859
19.225756,9.345990998925032,0.0811946697943654
19.228136,9.356235715940462,0.0810710666430202
19.230532,9.36983300814267,0.0809190887489675
19.23292,9.383709839598597,0.0807576168672253
19.235304,9.396375966241028,0.0806099877753913
19.2377,9.406900222510178,0.0804785498295278
19.240088,9.421708219525884,0.0803158918776158
19.242468,9.443733223594336,0.0801086180113489
19.244864,9.469250572476426,0.0798676000690984
19.247252,9.49332489911954,0.0796189441344918
19.249636,9.51460572908332,0.0793813909910218
19.252032,9.532161896807986,0.0791573596587158
19.25442,9.55092876934615,0.0789213704109887
19.256804,9.569975181138036,0.0786764323973344
19.2592,9.587438801064089,0.0784282469200135
19.261588,9.601037989124162,0.078197708318099
19.263968,9.617058586811236,0.0779429306656779
19.266364,9.629214752632336,0.0777042562313325
19.268752,9.640579522520518,0.0774637863651991
19.271136,9.653015227595336,0.0772170265959025
19.273532,9.662098357483382,0.0769979776338876
19.27592,9.679609199237674,0.0767244313664424
19.278304,9.69390723543205,0.0764747183156738
19.2807,9.710067602745983,0.0762204887460094
19.283092,9.72636773968678,0.0759625610707473
19.285472,9.748022552560766,0.0756696635650416
19.287872,9.767815034315197,0.0753845178691518
19.290256,9.77880771715104,0.075137569488115
19.292636,9.78924132147944,0.0749091496701194
19.295036,9.802747961740904,0.0746649817590885
19.297424,9.815183666815724,0.0744280686650711
19.299804,9.831623573383377,0.0741735239253081
19.3022,9.845549522525417,0.0739176655233232
19.304588,9.859894780548034,0.0736492153787957
19.306972,9.875730282637871,0.0733609742515321
19.309372,9.892916259168071,0.0730574122455078
19.31176,9.91024200532513,0.0727511170580482
19.31414,9.932131031482465,0.0724092762621662
19.31654,9.95457913614724,0.0720500044028709
19.318928,9.97265095226684,0.0716936789583191
19.321312,9.991049529468404,0.0712991595698448
19.323708,9.999996681445326,0.070931778661829
19.326096,10.005778249690575,0.0705541571065944
19.32848,10.006252363830878,0.0701799874951416
19.330876,10.005423225359063,0.0697925890314716
19.333268,10.000869424648137,0.0694151693342873
19.335648,9.991240487257738,0.069060118848304
19.338048,9.98640714729309,0.0686898192608788
19.340436,9.982412425089604,0.0682931412857388
19.34282,9.97534466695306,0.0679117060892099
19.345216,9.968416678443376,0.0675252770819178
19.347604,9.955342618067585,0.0671678504311869
19.349988,9.94105785287829,0.0668195191403182
19.352384,9.9231409732485,0.0665022926604343
19.354772,9.902662914364852,0.0662100645285733
19.357152,9.878692510667577,0.0659444645405213
19.359548,9.850298596596875,0.0657074551549213
19.361936,9.821205834391876,0.0654920451089866
19.36432,9.792345389612356,0.0652961443157553
19.366724,9.768652629310925,0.0651026261323704
19.369112,9.746635208673949,0.0649385702165705
19.371496,9.731787573261474,0.0647695170868731
19.373892,9.722107622327096,0.0646034022583845
19.37628,9.7188060606843,0.0644302743409846
19.378664,9.716016355720704,0.0642686903024182
19.38106,9.712667572249668,0.0641246973659773
19.383452,9.718398126950936,0.0639455599162871
19.385832,9.725059847211984,0.063765792895979
19.388228,9.734095755271785,0.0635957721413658
19.390616,9.741920958518088,0.0634355633522076
19.392996,9.752399888816864,0.0632759668096912
19.395396,9.771818387661089,0.0630878601949529
19.397784,9.795101318371284,0.0628902269522233
19.400164,9.820386349827896,0.0626848320621756
19.402564,9.849535813150483,0.0624701803015591
19.404952,9.883760413152542,0.0622361336339771
