Time,Force,Position
20.218676,1.3946835885220288,0.1761549899847785
20.221064,1.4132615737472212,0.1740915845844808
20.22344,1.429418149345416,0.1724658019963499
20.225848,1.4490198479290042,0.1705314329590198
20.228232,1.466619445766175,0.1688449711986949
20.230612,1.489806036962016,0.1666535221100671
20.233012,1.5179279952104687,0.1639756217688929
20.2354,1.5400436512196711,0.1619953194332727
20.23778,1.5625313942812111,0.1601038282806924
20.240176,1.5832493540218116,0.1586075149186929
20.242564,1.607691976001525,0.1567561486914799
20.244948,1.63092389316774,0.1551864477962073
20.247352,1.652293479214398,0.1537627547340559
20.264064,1.702240179071118,0.1531364420546753
20.266448,1.708012268027022,0.1530754147108977
20.268844,1.7172767017965618,0.1526752284164301
20.271232,1.7268206748198227,0.1522207996274558
20.302296,1.7322206767233883,0.1521400684895693
20.3047,1.7379946615371618,0.1515921921212494
20.307084,1.7426977111642965,0.1511553426638105
20.309464,1.7503340270976264,0.1505309348490822
20.311868,1.7516845015379856,0.1503845067143625
20.314256,1.753966141538123,0.1501875716973255
20.316636,1.7570391774711782,0.1499770043324901
20.319032,1.7585294215383973,0.1498082952971985
20.32142,1.758808960792118,0.1497482631516007
20.3238,1.7584368737397806,0.1496783628006741
20.326196,1.7611378226204986,0.1494039821429912
20.328584,1.7679827426209105,0.1488382882928352
20.330964,1.7769695329945991,0.1481091156618285
20.33336,1.786747719301206,0.1473853716818544
20.335748,1.7955947400480343,0.1466922831675083
20.338128,1.809796436728056,0.1456119083259487
20.340524,1.8262797734082143,0.1443457060532539
20.342912,1.8466275419543468,0.1428791115247035
20.345308,1.8626915697539248,0.1417265761882138
20.347704,1.8783362886729216,0.1406202162269899
20.395472,1.834535660682313,0.1400817822048146
20.397868,1.8324410121372792,0.1400720801600346
20.400256,1.835002191391137,0.1398464110330636
20.402652,1.8354215002717176,0.1397607977038129
20.405044,1.835561269898578,0.1397322600551641
20.416984,1.834025699860985,0.1396150993036312
20.41938,1.8375180446746209,0.1393414240265876
20.421768,1.8443629646750328,0.1388177203671963
20.424152,1.8504164887425265,0.1383229542932575
20.426548,1.8541883728098827,0.1380054444332074
20.428932,1.859962357623656,0.1375621136842574
20.431316,1.865876112064289,0.1371084578078997
20.433712,1.8747231328111176,0.136482610794604
20.4361,1.8861313328118043,0.1356264038575265
20.438484,1.9036856046786013,0.1343984536390541
20.440888,1.9218915028514565,0.1332004069823455
20.443276,1.9371641347181163,0.1321943739662399
20.445656,1.948013256211362,0.1315176150528546
20.448052,1.957000046585051,0.1309394220068672
20.45044,1.970782434384492,0.1301455010212019
20.452824,1.985635757370571,0.1292920683072531
20.45522,2.001140706662708,0.1284779732621724
20.534072,1.9165595772126949,0.1283401820336706
20.536456,1.9174907427724728,0.1283066678867497
20.53884,1.9209830875861091,0.1280770713891433
20.541236,1.9275484683328008,0.1276986485893312
20.54362,1.9353245538929909,0.1272351436386717
20.546,1.941238308333624,0.1268394121064688
20.548404,1.9490143938938145,0.1263784754046967
20.550792,1.963588177626173,0.1256241222013434
20.553172,1.9749491557986163,0.1250424831905393
20.555564,1.983004780612527,0.1245311513507541
20.557952,1.9896173831874615,0.124010369762914
20.560348,1.999675108747789,0.1233956578603765
20.562744,2.0132251791217524,0.1225527367072669
20.565132,2.029848285428771,0.1215311881660727
20.567512,2.0461918524820697,0.1205408301454284
20.569916,2.062675189162228,0.1195269619270142
20.572304,2.0780875906557483,0.1186005581756329
20.574684,2.0914978914028515,0.1178017700387709
20.57708,2.1095640199488463,0.1168264013828768
20.579468,2.121763615882451,0.116116652009223
20.581848,2.130890175883,0.1155707403302204
20.584244,2.136012534390715,0.1152071040418355
20.598572,2.1355478995397603,0.1150341828123408
20.60096,2.1361069780472013,0.1149397710451176
20.60334,2.1373176828607003,0.1148629527116331
20.605736,2.140390718793756,0.1147279919275565
20.608124,2.143743293980532,0.1145482987702433
20.61052,2.1460249339806685,0.1144242265960719
20.61292,2.150029135473502,0.1142705570743175
20.636808,2.147050543196933,0.114168621959438
20.639192,2.144816125025039,0.1141647527026075
20.641588,2.1445838075995614,0.1140751713815876
20.643976,2.1502180227864747,0.1137566432887272
20.646356,2.155432929092807,0.1135107804816824
20.648752,2.1585059650258627,0.1133805984711987
20.665476,2.1573424820406077,0.1133110723523529
20.66786,2.157482251667468,0.1132887797354527
20.670256,2.163116466854381,0.1130003190003264
20.672644,2.1699613868547925,0.1126447396982628
20.675024,2.1810900476017583,0.1121057521839118
20.67742,2.1912875427889458,0.1115955032666164
20.679808,2.202276433909052,0.1110702891749845
20.682204,2.2154071954024346,0.1104482887094788
20.6846,2.234124950254487,0.1096684870188149
20.686988,2.25270293547968,0.1089134756153129
20.689372,2.263272517719205,0.1084473920571545
20.691768,2.269977668092756,0.1081149619527382
20.694156,2.2800353936530837,0.1076279222713092
20.696536,2.2842265866010205,0.1073314241329198
20.698932,2.28762638361604,0.1070403384586011
20.70132,2.292888511750616,0.106699135548837
20.703704,2.301083906191386,0.1062644065926093
20.7061,2.31300396287127,0.1057466191315758
20.708488,2.323992853991376,0.1052522905064246
20.710868,2.329906608432009,0.1049387636683046
20.713264,2.3382417724996403,0.1044930426495365
20.715652,2.3445748358208545,0.1041174365371789
20.718032,2.3466241583955143,0.1039230656287269
20.720436,2.348533711343314,0.1037526717009797
20.722824,2.3472304587311985,0.1037137381525979
20.725208,2.3462067453728026,0.1036332842005312
20.727612,2.349327003134101,0.1034064496284968
20.729996,2.3515160953356213,0.1032025957148807
20.732376,2.3501202949248885,0.1030632240598885
20.734772,2.3527286960069893,0.1028068720109468
20.73716,2.36283364339556,0.1022656128343997
20.739544,2.3749406915305475,0.1016648799066976
20.74194,2.380622128545704,0.1013054206691318
20.744328,2.391238932613472,0.1007964210710683
20.746712,2.403578298173937,0.1002736861089596
20.808856,2.4001331751885444,0.1002439762072644
20.811236,2.405300859666634,0.1001933463158392
20.813632,2.4156834504510547,0.0999789319569619
20.81602,2.42979070347459,0.0996929933589477
20.8184,2.4457602876176825,0.0993757479867736
20.820796,2.463871742134051,0.0989823834488486
20.823184,2.4809122614637804,0.0986217723864913
20.825564,2.497161384860593,0.0982564426937873
20.82796,2.5178340186308192,0.0977310222520809
20.830348,2.539158278707104,0.0972180779611904
20.832728,2.557037415797995,0.0967375586948251
20.835124,2.574916552888886,0.0962570394284598
20.837512,2.59037428035278,0.0958894048541642
20.839892,2.5981031440847278,0.0957061022887822
20.842288,2.605692238189814,0.0955387043434904
20.844672,2.6164941378548163,0.0952609922006547
20.847056,2.6252939367734025,0.0950398752611437
20.882896,2.6450335091259807,0.0947767317687252
20.885292,2.643450717260144,0.0947733249082717
20.88768,2.6495967891262557,0.0946063067806944
20.890076,2.658955666552282,0.0943401169554778
20.892472,2.6640308032317543,0.0942080348205637
20.89486,2.6701768750978645,0.0940420059512215
20.89724,2.676602486217696,0.0938437844243665
20.89964,2.683959262897305,0.0936368196596975
20.902024,2.691316039576915,0.0934331512035971
20.904408,2.7021651610701607,0.0930946771817673
20.906804,2.7135733610708463,0.0926873068769964
20.909192,2.724981561071533,0.0922799365722255
20.911572,2.738811170699217,0.0917806240702606
20.913968,2.7534321762598197,0.0912749443314298
20.916352,2.7649801458873657,0.0908531710957459
20.918732,2.7774592810746905,0.0904206868410773
20.921136,2.7830009484629863,0.0901430560120563
20.923524,2.788542615851282,0.0898619798009218
20.925904,2.7900800817467446,0.0896726984689597
20.928304,2.7942712746946814,0.0894578105359471
20.930688,2.7996731724561177,0.0891928982828865
20.968912,2.6983725971847297,0.089089261276607
20.971308,2.693391904161744,0.0889969880930154
20.973696,2.692275643004732,0.0888334199263335
20.976076,2.688645424422105,0.0886763343361588
20.978472,2.687017306585896,0.0884770516708236
20.98086,2.6833870880032684,0.0883205598101686
20.983256,2.684971775726974,0.0880325913001506
20.985652,2.686556463450679,0.0877425204389314
20.98804,2.6881411511743845,0.0874555154686618
20.990424,2.692659105204285,0.0871154546518163
20.99282,2.6935921666219333,0.0868065212093713
20.995208,2.695735932853079,0.0864483814032138
20.997588,2.703886001323476,0.0859601736069764
20.999984,2.7147370186745907,0.0853583709196754
21.002372,2.730802942332038,0.0846335816216866
21.004752,2.747008635616345,0.0838961798610925
21.00716,2.7647045729678714,0.0830796690632606
21.009548,2.7793274743863425,0.0823406890318407
21.011928,2.7948815413645924,0.0815894476596661
21.014324,2.813229105022177,0.0808094477785689
21.016712,2.827432697560068,0.0801337974636243
21.019096,2.843498621217515,0.0794549470469143
21.021492,2.857562444128545,0.0788140221941985
21.023876,2.872277893345633,0.0781941973397972
21.02626,2.8840600762565267,0.0776262551205911
21.028656,2.8949110936076408,0.077067884836413
21.031044,2.9044116365183967,0.0765711324041259
21.033428,2.9171249849890684,0.076003220757543
21.035824,2.9276964630864626,0.0754872092850536
21.038212,2.933751883011825,0.0750011823504607
21.040592,2.942461029989663,0.0744977120767556
21.042988,2.9507508680869203,0.0740386451535012
21.045376,2.959040706184177,0.0735892857739843
21.047772,2.959973767601825,0.073296226669133
21.050168,2.958904728273055,0.0730398784618964
21.052556,2.9566249841307872,0.0728216889690704
21.054936,2.952063599988381,0.072664612841779
21.057332,2.947362446219117,0.0725220412886914
21.05972,2.942521522822991,0.0723946986902877
21.062104,2.9347473331206704,0.0723071150763469
21.066888,2.9141238170365567,0.0722176518248914
21.069272,2.9023454258414016,0.0721912974805898
21.071668,2.891917509086606,0.0721091361882113
21.074056,2.8802788875183114,0.0720659271377443
21.076436,2.871433762629352,0.07199795313203
21.078832,2.86473050811367,0.0718834358892481
21.08122,2.854954217664932,0.071820172670082
21.083604,2.8462488624028337,0.0717339807712342
21.086,2.8414079390067077,0.0716021824950025
21.088388,2.835775619677664,0.0714618764407183
21.090768,2.833495875535396,0.0712394362917598
21.093168,2.8272119299002934,0.0710752218816623
21.095556,2.826003120944664,0.0708283822726878
21.097936,2.82051057124248,0.0706702478330259
21.100336,2.81902222303313,0.0704540358343102
21.102724,2.820327371503115,0.0702160721012839
21.105108,2.822703455159739,0.0699551031816879
21.107504,2.824288142883444,0.0696851142829166
21.109892,2.8269437657937884,0.0693919707218344
21.112272,2.8286682231443536,0.0691053358444178
21.114672,2.8376096875476686,0.0686915569502455
21.117056,2.845480216764345,0.0683036474138441
21.119452,2.8521400411675226,0.0679567638642982
21.121856,2.8632233759441146,0.0675095604413306
21.12424,2.870442278854733,0.0671038345782391
21.12662,2.8717946491529616,0.066764563090741
21.129016,2.8748695809438862,0.0664284111305471
21.131404,2.880086383108088,0.0660537709783724
21.133784,2.8851634156454287,0.0656980843311413
21.13618,2.894104880048744,0.0653092945325384
21.138568,2.90197540926542,0.0649476151122559
21.140948,2.910916873668735,0.0645626531975683
21.143352,2.9218604388184666,0.0641619961350803
21.14574,2.937087744714753,0.0636800803705883
21.14812,2.947379683558427,0.0632551904113974
21.15052,2.95874255758874,0.0628163940075386
21.152904,2.9719677627386085,0.0623730454506831
21.155288,2.9889176301275917,0.0619167225199969
21.157684,3.004656792703075,0.0614916426031916
21.160072,3.0231894519578937,0.0610568818710804
21.162452,3.0375781400930184,0.0606870821100955
21.164856,3.0536893897208395,0.0603265418787487
21.167244,3.0693813304680804,0.0600068566930167
21.169628,3.08451419270788,0.0597498656338868
21.172024,3.1016491556940964,0.0594703981067557
21.226964,3.1888972832016687,0.0593641089392741
21.229364,3.1952756724932563,0.0593561533825093
21.231748,3.205658263277678,0.0593118537881227
21.234132,3.2183224940622366,0.0592229608058942
21.236528,3.2326167385408757,0.0590660080948549
21.238916,3.2501237885794287,0.0588568993739641
21.241296,3.261205227498152,0.0587455616477141
21.243696,3.26800292567032,0.0586976161404947
21.24608,3.2774543508949643,0.0586536803502507
21.248464,3.286766006492747,0.0586229854678244
21.25086,3.302223733956641,0.0585236094563913
21.253248,3.317541691793674,0.0584397188468866
21.255632,3.335932685563764,0.0583211796943914
21.258028,3.3516699522813784,0.0581997034930315
21.260416,3.365544887879436,0.0580830289940597
21.2628,3.3787681971714365,0.0579442609540095
21.265196,3.392922672023214,0.0578021488547557
21.59732,1.0873172822338153,0.0576545165456514
