Time,Force,Position
23.144224,3.707597216540652,0.1696361656760752
23.146612,3.7142532492280913,0.1696318182089761
23.148992,3.7241220874754464,0.1694954945577405
23.151388,3.736924192028997,0.1692587281535754
23.153776,3.755732598821797,0.1688084290453244
23.156156,3.7808268471075688,0.1681182767452795
23.158552,3.803267368340866,0.1675071702193145
23.16094,3.818630652148274,0.1671483635488128
23.16332,3.836507893381296,0.1667367616558211
23.165736,3.855036760920376,0.1663225510648046
23.16812,3.8747763332729552,0.1658509284920698
23.1705,3.887857977080225,0.1655868431451803
23.1729,3.8987052027156017,0.1653493477405431
23.175288,3.911834068351116,0.1650015713027967
23.177668,3.9251027036134896,0.1646429523811657
23.180068,3.9374401733160846,0.1643184080775196
23.182456,3.953921614138374,0.1638389799166684
23.184836,3.962674191228716,0.1636123825811353
23.187232,3.974639573878974,0.1632575621625198
23.18962,3.9878156613427302,0.1628504191097705
23.206332,4.009740534181091,0.1626179549371509
23.208732,4.0126265786590425,0.1625979249729689
23.211116,4.016863097577354,0.1625123556828626
23.2135,4.021518925376245,0.1623851976435091
23.215896,4.02524358761536,0.1622839372103044
23.218284,4.033903616907085,0.1620228104146315
23.220668,4.044425977318366,0.1617107369852085
23.223064,4.05457625067731,0.1613672543817373
23.225448,4.062492105864361,0.1610469629638709
23.227832,4.0693370258647725,0.1607672208171325
23.230228,4.072457283626071,0.1605920285903442
23.23262,4.084377340305955,0.1601438853235782
23.235,4.096017857732118,0.1597312501811912
23.237396,4.103793943292309,0.1594330455798915
23.239784,4.115853769599053,0.1589844394329503
23.242164,4.124188933666685,0.1586288631568063
23.244564,4.127588730681703,0.1584264052792298
23.246952,4.1324787717639415,0.1581448575421901
23.249336,4.139510683219457,0.1577854715798439
23.251732,4.152688666541082,0.1572099786209621
23.25412,4.156927081317262,0.1569191577407301
23.2589,4.151249436017845,0.1568132419872389
23.261288,4.148410613368136,0.156759937801194
23.263672,4.145711560345287,0.1566928848657048
23.266068,4.146597399934691,0.1565416807082354
23.268456,4.146272534710596,0.15644208469682
23.27084,4.149672331725616,0.1562473216987068
23.273236,4.155213999113911,0.155979581031468
23.275628,4.163177076129204,0.1556144304228535
23.278008,4.168998282771221,0.1553186667873013
23.280404,4.172025992733903,0.1550980707130274
23.282796,4.172260206017249,0.1549475142924252
23.285176,4.174356750420153,0.1547496011732722
23.287572,4.17324048926314,0.1546616480595206
23.289964,4.17813053034538,0.1543955318197881
23.292344,4.187164542547311,0.153995237044105
23.29474,4.194848080308884,0.1536600404647808
23.297128,4.202252078816736,0.1533532634544017
23.299512,4.209656077324589,0.1530492655564912
23.301908,4.225999644377887,0.1524832736536617
23.3043,4.240480880311629,0.1519593668427252
23.30668,4.258826548111345,0.1513254435214568
23.309076,4.27130568329867,0.1508592268781665
23.311468,4.285926688859273,0.1503265684513564
23.313848,4.297102571434482,0.1498667260775817
23.316244,4.307766597330493,0.1493893574687487
23.318632,4.31442642173367,0.1490306196125652
23.321016,4.319316462815909,0.148772517482701
23.323412,4.32113346796509,0.1486068714809984
23.325804,4.330027710540162,0.1482399198336839
23.328184,4.3350575212492615,0.1479706646113009
23.330584,4.3422292023316365,0.1476330305122833
23.332972,4.349680422667732,0.147270586651327
23.335356,4.354338146324494,0.1469703461997969
23.337752,4.356993769234837,0.146728500164593
23.34014,4.360301018451239,0.1464928914228461
23.342524,4.365750138040918,0.1461918870037302
23.34492,4.371898105764897,0.1458312328495007
23.347308,4.381258879048793,0.1453800133248352
23.349692,4.388757321213132,0.1449751922597148
23.352088,4.400259964870304,0.1444682946744508
23.35448,4.410831442967698,0.1439833973809018
23.35686,4.426338288117705,0.1433760198842165
23.35926,4.439703262894435,0.1428373866554086
23.361648,4.451857532857665,0.1423413456519666
23.364028,4.465874133940452,0.1418088821716873
23.366428,4.481892835769656,0.1412267056645931
23.368816,4.49940178166608,0.1405796331157589
23.371196,4.516910727562504,0.1399297271580296
23.373596,4.528553140846537,0.1394236971286191
23.375984,4.54634162599668,0.1387595084791575
23.378368,4.563059175960185,0.1381298421264741
23.380764,4.578705790737051,0.1375304922445299
23.383152,4.600218938126308,0.1367972609979925
23.385532,4.619729984769148,0.1361093403381879
23.387932,4.635795908426595,0.1354737368834964
23.390316,4.647857630591209,0.1349370914408851
23.3927,4.655495842382408,0.134532050391116
23.395096,4.65498588156108,0.1343343605318936
23.397484,4.652473819993334,0.1341852246806979
23.399864,4.6480994273060325,0.1340725210929942
23.416596,4.587819254351004,0.134017534752904
23.418988,4.580651364984367,0.1339552704402048
23.421368,4.578418842670342,0.1337840539612847
23.423768,4.571902579609762,0.1337259345728792
23.426156,4.566317482108961,0.133650710029865
23.42854,4.559801219048382,0.1335922633139232
23.430936,4.551562394495108,0.133554349493985
23.433324,4.547327771434666,0.1334281073479819
23.435708,4.546817810613337,0.1332364784339074
23.438124,4.547378784978648,0.1330161067370621
23.440508,4.5540858312100685,0.1326525197123246
23.442892,4.561863812628128,0.1322534418141417
23.445304,4.572575060352382,0.1317946512392289
23.447692,4.583006768822917,0.1313594198290748
23.450088,4.59343847729345,0.1309216617229162
23.452484,4.60135622833837,0.130511157030971
23.454868,4.611276080129708,0.1300532543755244
23.457248,4.624920594160157,0.1295283319550075
23.459656,4.637633942630828,0.1290228154632263
23.462044,4.648996816661141,0.128568381724817
23.464424,4.659288755504814,0.1281445869687892
23.46682,4.669301155094767,0.1277496898364109
23.469208,4.677031914684584,0.1274255887455243
23.471588,4.689837810953871,0.1269936742925798
23.473984,4.697708340170547,0.126659308136854
23.476372,4.710234697186117,0.1262478326794716
23.478752,4.720479414201548,0.1259020590690552
23.481148,4.732866001590255,0.1255123833575358
23.483536,4.744041884165465,0.1251633641628927
23.485916,4.758151033046869,0.1247613745709055
23.488316,4.765462483756105,0.1244843770625
23.4907,4.7827844381974245,0.1240147986730071
23.49308,4.796102191145911,0.1236248313049877
23.495476,4.812492980027452,0.1231756468886715
23.497864,4.836892171894661,0.1225846565174035
23.500264,4.864084860441205,0.1219532472155925
23.50266,4.893139880107306,0.1212998935265118
23.505048,4.920472338280709,0.1206696268052735
23.507428,4.946733861267474,0.1200619400047248
23.509824,4.974997485000657,0.1194177502403154
23.579108,4.828317281588564,0.119205574886836
23.581504,4.818588212968068,0.1192020196829655
23.583892,4.811280553974571,0.1191299611382888
23.586272,4.810678045354626,0.1188960155925299
23.588672,4.809284140801762,0.1186645809938221
23.59106,4.811754668114872,0.1183660762490452
23.59344,4.81608752654754,0.1180359165637184
23.595844,4.81748711867401,0.1177575305275925
23.598232,4.817024379680924,0.1175070453675983
23.600612,4.818144432553675,0.1172527120929744
23.603016,4.815911910239652,0.1170808131782325
23.6054,4.813539618298766,0.1169199344583234
23.607784,4.813821053410357,0.1167301606188289
23.610176,4.810238056655972,0.1166034869406546
23.612568,4.806515290274729,0.1164868450490501
23.614948,4.803583919826402,0.1163675300803234
23.617344,4.803213728631934,0.1161686230339299
23.619732,4.812062645236631,0.1157890069190114
23.622116,4.819980396281551,0.1154264163071461
23.624512,4.830412104752084,0.1150474446647035
23.6269,4.842706144342175,0.114646467378119
23.62928,4.852066917626071,0.1142936872935181
23.631676,4.856352554230494,0.1140358534736136
23.634064,4.860079112327477,0.1138204810510295
23.636448,4.8676701022904325,0.1135478590714689
23.638844,4.876983653746086,0.1132613052170818
23.641236,4.888159536321295,0.112948754009337
23.643616,4.903060081135617,0.1125872420326058
23.64602,4.920893892256134,0.1121814572638754
23.648408,4.932721401137402,0.1118784784175298
23.650788,4.948553111511504,0.1115066711643096
23.653184,4.962382721139187,0.1111696699905465
23.655572,4.973139294833816,0.1108906205926331
23.657952,4.990973105954333,0.1104924254672176
23.660348,5.012531579313964,0.1100505999342514
23.662736,5.031948182300318,0.1096521035976992
23.665116,5.054670138645204,0.1092408094025912
23.66752,5.0672418216311454,0.1090048601614154
23.669908,5.075669533497393,0.1088435608946194
23.672288,5.083305849430722,0.1086854990023572
23.674692,5.088660525363915,0.1085803806732245
23.67708,5.099602194655778,0.1084092723808803
23.67946,5.111614799134279,0.1082157173520726
23.68186,5.126840209172696,0.1079641046388859
23.684248,5.139132352904918,0.1077579319166959
23.686628,5.152495431823778,0.1075337281529897
23.689028,5.168000381115915,0.1072714108155438
23.691412,5.180711833728717,0.10704147543671
23.693792,5.189419084848686,0.1068729104306474
23.696192,5.20147891115543,0.1066331601345005
23.69858,5.212467802275536,0.106415604442945
23.70096,5.223316923768782,0.106206034333882
23.70336,5.235097210821805,0.1059852688388233
23.705744,5.237658390075663,0.1059170007925046
23.708124,5.238357238209963,0.1058701713759353
23.710528,5.240266791157763,0.1057941270434788
23.712916,5.236449581120033,0.1057896117784498
23.715296,5.239709608508193,0.1056741591828433
23.717692,5.248696398881881,0.1054861271042228
23.72008,5.258614354815348,0.1052897041586305
23.722464,5.268811850002535,0.1050744993023231
23.724868,5.27514491332375,0.1049119370719464
23.727256,5.2839919340705785,0.104737892552411
23.743968,5.280594032913429,0.1047044626718873
23.746372,5.283107990339044,0.1046933478351982
23.74876,5.289765918884352,0.1046163486758766
23.75114,5.298425948176077,0.1045117001751774
23.753536,5.313092279707053,0.1043206367042078
23.755924,5.324825344931833,0.1041675873924804
23.758308,5.335487474969975,0.104033158565994
23.760704,5.35122474168759,0.1038222843440861
23.763092,5.367613634711262,0.1036237797634176
23.765472,5.381209031055599,0.1034555731286934
23.767868,5.390660456280243,0.1033519409781966
23.770256,5.401974212624443,0.1032306097713513
23.772636,5.415290069715061,0.1030828095477722
23.77504,5.427023134939842,0.1029367134636905
23.777428,5.440618531284177,0.1027705938877036
23.779808,5.462222330614182,0.1024957039753844
23.782212,5.483826129944188,0.1022233115341601
23.7846,5.501425727781359,0.1020033585225355
23.78698,5.522098361551586,0.1017369654681659
23.789376,5.538906563455839,0.1015164330624747
23.791764,5.552688951255279,0.1012902753949242
23.794148,5.564189699054583,0.1011093895797788
23.796544,5.569544374987776,0.1010191599676313
23.798928,5.572896950174552,0.1009565796968614
23.801312,5.575178590174689,0.1009123119730591
23.803708,5.581184892413939,0.100831972583314
23.806096,5.591055626519163,0.1007077211765979
23.808476,5.600786590997527,0.1005941064155868
23.810872,5.606792893236777,0.100516044582774
23.81326,5.613078734729748,0.1004210315503434
23.815644,5.620994589916798,0.1002734496017369
23.81804,5.625837409170794,0.1001696477709088
23.820428,5.627746962118593,0.1001008187456779
23.82998,5.616202784206786,0.1000326903997249
23.832376,5.613596278982554,0.0999985651521135
23.834764,5.613783270437657,0.0999391904873486
23.837148,5.618905628945372,0.0998210044703786
23.839544,5.622397973759008,0.0997530961497761
23.841932,5.631105224878977,0.0996102521776489
23.844316,5.646889713424834,0.0993756477956308
23.846712,5.6628139715975525,0.0991328987058304
23.8491,5.675944733090936,0.0989145921169219
23.851496,5.6873529330916215,0.0987057799204842
23.853892,5.697038571599612,0.0985075366444281
23.85628,5.703651174174546,0.0983506691948841
23.85866,5.709332611189701,0.0982009238482414
23.861056,5.715665674510915,0.0980603111883893
23.863444,5.722370824884466,0.0979449208767898
23.865828,5.731497384885016,0.0977802636136418
23.86822,5.740903484139285,0.0975984291575305
23.870612,5.750169813766694,0.0974251375722992
23.872992,5.756223337834187,0.0973001875495406
23.875396,5.766420833021376,0.0971152886555278
23.877784,5.7788999682087,0.096888565529493
23.880164,5.792450038582664,0.0966509906920506
23.882564,5.801484050784597,0.096446986613534
23.884952,5.804791300001,0.0962985385452197
23.887332,5.811311354777318,0.0961011784241947
23.889728,5.811825107314384,0.09597654918073
23.892116,5.808474427985477,0.0958916033989589
23.8945,5.802981878283292,0.0958382671981361
23.896908,5.799631198954387,0.0957528981633377
23.899292,5.79628051962548,0.0956674751170348
23.904072,5.776495621302527,0.0956557058873325
23.90646,5.769280510107647,0.0956093116418192
23.90884,5.760482607046932,0.0955617405457304
23.91124,5.752895408799714,0.0954896851018761
23.913624,5.742095404992581,0.0954656662596819
23.916008,5.732878193051284,0.0954424469334792
23.918404,5.72179864999043,0.0954350278286021
23.920796,5.715934013235908,0.0953551389668476
23.923176,5.713421951668162,0.0952188704779694
23.925572,5.710909890100417,0.0950829647090318
23.92796,5.698247555173728,0.0950719984137129
23.93034,5.687447551366595,0.0950452811369891
23.932736,5.681722684238935,0.0949560042300984
23.935124,5.675346190805216,0.0948575288902595
23.937508,5.670971798117915,0.0947357096830084
23.939904,5.665666239870834,0.0946211157036091
23.942292,5.666506753489864,0.0944296779806761
23.944676,5.670000994161369,0.0942257942309219
23.947072,5.6747059396463735,0.0939992583698075
23.94946,5.68462579143771,0.0937025574150968
23.95184,5.7005519454682965,0.0933371500003625
23.954236,5.716757638752603,0.0929605178745975
23.956624,5.73268379278319,0.0925991869657653
23.959004,5.749820651627275,0.0922182694933506
23.961408,5.772963812710612,0.0917743988547661
23.963796,5.796386513047669,0.0913173061179589
23.96618,5.824744580437337,0.0908120295143952
23.968576,5.8544531222673655,0.0902854926028481
23.970964,5.87866721853734,0.0898420579711985
23.973344,5.898737343687621,0.0894469208700563
23.975744,5.929888907756625,0.0889322865154871
23.978132,5.959038371079211,0.0884402072523259
23.980516,5.984043863282104,0.0879991378245228
23.982912,6.006627945858,0.0876014998305264
23.9853,6.029072258807035,0.0872121421579511
23.987684,6.051656341382932,0.086814341123733
23.99008,6.069584596159936,0.086452940733767
23.992468,6.085138663138185,0.0860905239957563
23.994852,6.097340154929659,0.0857774612859443
23.997252,6.108610481161354,0.0854719912366396
23.99964,6.116947541086854,0.0851937972196782
24.002024,6.124073896198856,0.0849392826899227
24.00442,6.130548625004799,0.0846741674303255
24.006808,6.131948217131271,0.0844611881142526
24.009196,6.126410341458712,0.0843120549337649
24.011592,6.117008033920182,0.0841931500389364
24.01398,6.1060229345158135,0.0840700861575529
24.016364,6.088751993618476,0.0840176543606901
24.018764,6.074833627907914,0.083917920754885
24.021152,6.066269938130544,0.0837522015682283
24.023536,6.048766679807727,0.0836656117455876
24.02594,6.03340529185819,0.0835523411958099
24.028328,6.021396479095428,0.0833921096483374
24.030708,6.013019780773162,0.0831700498892193
24.033104,6.00212912502528,0.0829479344917184
24.035492,5.993380339650676,0.0826996714879112
24.037876,5.984352015022351,0.0824657242889441
24.040276,5.97276251114017,0.0822794310840295
24.042664,5.963594416884986,0.0820516522352819
24.045044,5.9544263226298,0.08182362144029
24.047444,5.947120559494172,0.0815850615558224
24.049832,5.935019198932793,0.0813788072465624
24.052212,5.928644601356944,0.0811345948390184
24.054612,5.927205370833708,0.080849651111646
24.057,5.930841276989942,0.0805165683856127
24.05938,5.9394125501987896,0.0801432766859106
24.06178,5.945702183407498,0.0798035011879046
24.064168,5.9561357877359,0.0794205926134645
24.066548,5.966429622437444,0.0790476664369556
24.068944,5.97472135639257,0.0786944765660016
24.071332,5.987017291840531,0.0783051229839617
24.073716,5.997450896168934,0.0779266073363156
24.076116,6.008536126803395,0.0775616921335725
24.078504,6.020272983743914,0.0772107730701619
24.080888,6.038016142923684,0.0768132442852486
24.083284,6.054688366916815,0.0764301514355821
24.085672,6.073642230910084,0.0760181703163421
24.08806,6.094086338970572,0.0755709752096717
24.090456,6.115741151844557,0.0751086494770383
24.092844,6.139677604718682,0.0746207343427086
24.095224,6.165895697592942,0.0741097235031987
24.09762,6.20012219345287,0.0735417337066217
24.100012,6.229832631140767,0.0729921197460716
24.102392,6.260381686589826,0.072408738629778
24.104788,6.285203979053353,0.0718539076888797
24.107176,6.306301609277768,0.0713152861147774
24.10956,6.327818548382763,0.0707555317130592
24.111956,6.3486838611817005,0.0701889565939067
24.114344,6.365824511741525,0.0696350434647269
24.116728,6.382685623047628,0.0690963536257923
24.119124,6.399546734353732,0.0685588890729339
24.121512,6.419201342339171,0.0680147864771794
24.123892,6.434479661779439,0.0674732108581812
24.126292,6.444031218234176,0.0669562932861192
24.12868,6.449438803569221,0.066474774049957
24.13106,6.455777554464043,0.0659921524163916
24.13346,6.461185139799087,0.0655143823058261
24.135848,6.469386221813464,0.0650303309810332
24.138228,6.477028225320403,0.0645759452731728
24.140628,6.4814574232674245,0.064151176001347
24.143016,6.479600779721476,0.063775276132642
24.145396,6.473460395428972,0.0634378472105498
24.147792,6.465969536696111,0.0631213861200371
24.150184,6.450562822776199,0.0628862319042698
24.152564,6.439811936655177,0.0626385787732599
24.154964,6.432785712773269,0.0623818463379211
24.157348,6.425619719264501,0.0621309792798198
24.159732,6.41989674799471,0.0618964919548238
24.162128,6.416967273404253,0.0616549350941296
24.164516,6.4161796691870725,0.0613969361846878
24.1669,6.415671604223614,0.0611259979326078
24.169296,6.411950733700239,0.0608810287188313
24.171684,6.412466382095176,0.0606463822781523
24.174068,6.41922065015484,0.0604119086754933
24.176464,6.426906083774282,0.0601757600820736
24.178852,6.431378711833808,0.0599647374996633
24.181236,6.4323589950797,0.0597913733214352
24.183632,6.430406012019396,0.0596301758907193
24.18602,6.424588597093118,0.0594819153173026
24.188404,6.4195625780997565,0.0593383149343163
24.1908,6.416398890225954,0.0591905561709432
24.193188,6.409091231232456,0.0590689109116227
24.195568,6.4056480041049335,0.0589336861538176
24.197968,6.410213179963077,0.0587576660409135
24.200356,6.413847190261442,0.0585839202384853
24.202736,6.413337229440113,0.0584369222212796
24.205136,6.415201456417539,0.058305416911393
24.207524,6.412781942648412,0.0582068823287854
24.209904,6.411293594439061,0.0581069285465009
24.212304,6.403798943990462,0.0580357660966695
24.214692,6.395605445407561,0.0579975974098333
24.217076,6.3884828820112975,0.0579511863958356
24.219472,6.37842705230884,0.0579158058550137
24.22186,6.365857265180766,0.057871441104299
24.224244,6.3530079387989735,0.0578400183683308
24.22664,6.341089777976958,0.057807113223147
24.229028,6.335177919394194,0.0577457188443545
24.231412,6.332059557490765,0.0576800787333864
24.233808,6.333876562639947,0.0575943059078016
24.236196,6.33569356778913,0.0575086080340473
24.238576,6.341514774431148,0.0574048380459385
24.240976,6.351479952192858,0.0572751175940687
24.243364,6.358232324394653,0.0571695276763772
24.245748,6.360049329543835,0.0570839794118513
24.248144,6.362378191372216,0.0570170099781479
24.250536,6.368431715439709,0.0569448759138196
24.252916,6.3736938435742845,0.0568679023425899
24.255324,6.379375280589441,0.0567706326393256
24.257712,6.384777178350877,0.0566869323944885
24.260096,6.397907939844259,0.0565802711177273
24.262492,6.412249406151141,0.0564594568052097
24.26488,6.426590872458023,0.0563389861558785
24.26726,6.44400537469796,0.0562023837306695
24.269656,6.459278006564619,0.0560812015945902
24.272044,6.472548537684862,0.0559684112765052
24.274428,6.487681399924662,0.0558531946305856
24.276828,6.4996014566045455,0.0557618877286148
24.279216,6.507237772537875,0.0557014238377473
24.281596,6.514874088471204,0.0556417196419919
24.283992,6.524232965897232,0.0555865118031844
24.28638,6.529587641830425,0.0555489273465577
