Time,Force,Position
22.756248,3.824156986924845,0.1615203636295839
22.758644000000004,3.8344470299106495,0.161155004939594
22.761032,3.845900555881709,0.1608136188784752
22.763412,3.861218513718743,0.160345548227935
22.765808,3.872392500436083,0.1600278385277527
22.768192,3.881052529727808,0.1597619428618467
22.770576,3.8871986015939193,0.1595466180846337
22.772972000000003,3.898699349393222,0.1591311871630972
22.775356,3.909920557938806,0.1587476559673828
22.77774,3.922724558350225,0.1583420011923578
22.780136,3.93711135062748,0.1579144552652414
22.782524,3.9485648765985406,0.157584354302525
22.784904000000004,3.9693772799956273,0.1569187430504745
22.787304,3.992983180072049,0.1561701603379283
22.789688,4.017100936827668,0.155447089480751
22.792084000000003,4.042801485449123,0.1547119966190154
22.794488,4.062216192577608,0.1542043265852784
22.796872,4.080280425265733,0.1537718747419333
22.799252000000003,4.097693031647801,0.153335833786197
22.801656,4.118178673962925,0.1528011977288974
22.80404,4.132937553292518,0.1524340143711433
22.806420000000003,4.143971770382998,0.1521637551233593
22.808824,4.155145757100337,0.1518846337415005
22.811212,4.169113240497012,0.151541344491183
22.813592,4.185222594266965,0.1511221035184499
22.873324000000004,4.176101721840023,0.1508315439264946
22.875712,4.1734026688171735,0.1507608112044025
22.878096,4.173916421354241,0.1505852049023422
22.880492000000004,4.178154836130421,0.1503198104717995
22.88288,4.184255582026158,0.1500084785650176
22.88526,4.191287493481673,0.1496714005019528
22.887656,4.19696893049683,0.1493939938872768
22.890044000000003,4.201439662698487,0.1491668138985599
22.892424,4.206981330086783,0.1489064755086409
22.942612000000004,4.205772521131154,0.1487478549141013
22.945008,4.212477671504706,0.1485146676326652
22.947392,4.221045152997814,0.1482380265815271
22.949776,4.223606332251671,0.1481320713275699
22.952172000000004,4.228961008184863,0.1479630604214868
22.95456,4.242463856730584,0.1475659230262384
22.956940000000003,4.257037640462942,0.1471406669959086
22.959336,4.272170502702742,0.1466654482647546
22.961724000000004,4.279574501210594,0.1463800249327952
22.96412,4.290563392330699,0.1460217318633479
22.966516,4.305416715316779,0.1455647506830883
22.968904,4.318267937556442,0.1451588467620211
22.971284000000004,4.336334066102437,0.1445981189260821
22.97368,4.354679733902152,0.1440220245508659
22.976068,4.375958668008062,0.1433806957164158
22.978452000000004,4.394723644688359,0.1427835999779975
22.980848,4.418144449167546,0.1420952923069836
22.983236,4.441565253646733,0.1414136304111906
22.985616,4.466708619618617,0.1407127192467451
22.988016,4.4915724463367805,0.1400309114275112
22.9904,4.519788848241721,0.1392469142889163
22.992780000000003,4.543069883094048,0.1386051168274609
22.995176,4.565559522013457,0.137973111925226
22.997564000000004,4.587117995373087,0.1373531619050139
22.99996,4.60709367686688,0.1367524475587278
23.002356,4.619060955375008,0.1363504753222462
23.004744,4.628234737203801,0.1360045808442467
23.007124000000005,4.6392708501521485,0.135626691124195
23.009528000000003,4.656313265339749,0.1351048978251536
23.011912,4.672704054221291,0.1345795339579131
23.014292,4.692028109409028,0.1340006204031291
23.016692,4.713773574223762,0.1333384305145258
23.019076,4.730583671985886,0.1327895004714908
23.021456,4.743389568255174,0.1323335332857444
23.023856,4.750189162285212,0.1320152696029557
23.02624,4.7576403826213065,0.1317039678051189
23.028624,4.758573444038953,0.1315125587276086
23.03102,4.758575339896822,0.1313385118959288
23.033408,4.7575063005680525,0.1311932429893863
23.035788000000004,4.755645865306366,0.1310527742046285
23.042956000000004,4.733348905415668,0.1310442042972499
23.04536,4.726273563847648,0.1310319297988141
23.047744,4.719058452652768,0.1310303886761118
23.050128,4.713705672577444,0.130995959336562
23.064472,4.67264942358006,0.1309645645719452
23.066868,4.668088039437654,0.1309216804851762
23.06926,4.667670626414942,0.1307834304155753
23.07164,4.67419068119126,0.1305041919311211
23.074040000000004,4.678988174474881,0.1302453535592667
23.076424000000003,4.688581265184253,0.1298980391770669
23.078804,4.695241089587431,0.1296059886545841
23.081208000000004,4.698316021378356,0.129364600764395
23.083592000000003,4.706466089848753,0.1290133698526047
23.085972,4.714336619065429,0.1286845588538004
23.088368000000003,4.729563924961715,0.1281795606974108
23.090756,4.747724497164196,0.1276233059308198
23.093136,4.764394825299458,0.1271244559930233
23.095532,4.782927484554276,0.1265990028674169
23.09792,4.804393410115291,0.126019125253333
23.100296,4.82143582530289,0.1255548016358442
23.102704000000003,4.843413607543101,0.1249945113152197
23.105088,4.861387188290479,0.1245134759843944
23.107472,4.8760081938510815,0.1241211318394515
23.109876,4.886624997918849,0.1238101538488142
23.11226,4.897381571613479,0.1234886610771148
23.114644,4.902411382322577,0.1232700770733657
23.117040000000003,4.906230488218177,0.1230902620399232
23.119424,4.903251895941607,0.1230359699009143
23.121808,4.902135634784594,0.1229521309227924
23.124204,4.8998086688140825,0.122904341063681
23.126588,4.903208465829102,0.1227590403539807
23.128972000000005,4.912195256202791,0.1225272987283052
23.131368,4.917969241016564,0.1223725093915639
23.133756,4.9237432258303375,0.1222177200548226
23.136152000000003,4.926583944337915,0.1221172754837268
23.138548,4.924768835046602,0.1220863181754734
23.140936000000004,4.925514905009146,0.1219762360548801
23.143316,4.923467478292355,0.1219074284946631
23.145712000000003,4.918486785269369,0.1218896588782342
23.1481,4.917929602619797,0.1217663251627132
23.15048,4.913927296984833,0.1216765964021759
23.152880000000003,4.915931293589119,0.1214762461548441
23.155264000000003,4.919937390939822,0.1212377768746661
23.157644,4.929670251276055,0.1209084850150637
23.160044,4.942336377918484,0.1205327517481392
23.162428,4.958866936426887,0.1200926150962963
23.164812,4.974466329375511,0.11966787429529
23.167208,4.992998988630328,0.1191896563285089
23.169596,5.00938977751187,0.1187585873363916
23.171988,5.024849400833633,0.1183420581565184
23.174388,5.037375757849201,0.1179789516544334
23.176772,5.046968848558574,0.1176680036148868
23.179156,5.057632874454585,0.1173352832008522
23.181552000000003,5.068576439604318,0.1169831783246698
23.241288000000004,5.03296741433874,0.1167385504774613
23.243668,5.031292074674286,0.1166965832042202
23.246068,5.030967209450192,0.1166123221461869
23.248456000000004,5.033016532024852,0.1165206720039576
23.250836,5.03599702015929,0.1164175550672405
23.253232000000004,5.038046342733951,0.1163260350260903
23.25562,5.043168701241666,0.1161774682892236
23.258000000000003,5.051503865309297,0.1159640101680789
23.260404,5.059559490123207,0.1157687105656507
23.262788,5.0677548845639775,0.1155648769584574
23.265168000000003,5.07501911344497,0.1153756192228907
23.267568000000004,5.086799400497994,0.1151388571129228
23.269956,5.095366881991103,0.1149664088258441
23.272336000000003,5.111523457589297,0.1146920367213099
23.274732,5.1303809820682105,0.114337119851535
23.277120000000004,5.152451312107039,0.1139222690364554
23.2795,5.174940951026448,0.1134755288854925
23.2819,5.201434791438691,0.1129680765076916
23.284288000000004,5.231932833343768,0.112404557457698
23.286668,5.262850184129424,0.1118228541538878
23.289064000000003,5.293907304541943,0.1112372105948366
23.291452,5.321891389021404,0.1107059284199526
23.293836,5.349875473500866,0.1101758959934722
23.296232000000003,5.376696074995074,0.1096259401858967
23.298624000000004,5.400583410183084,0.1091192237640454
23.301004,5.425541680557734,0.108588987579181
23.303400000000003,5.448218310932247,0.1081084945754279
23.305784000000003,5.467961675000565,0.1076741147594062
23.308184000000004,5.4910576142556575,0.107172771269056
23.31058,5.511360056831415,0.1067026389460319
23.312968,5.530591564220534,0.1062546219513944
23.315348,5.544096308624124,0.1058800843777252
23.317744,5.56081385858763,0.105446809839487
23.320132,5.570873480005825,0.1050977726298052
23.322516,5.578511691797026,0.1048058252551182
23.324912,5.583216637282028,0.104554923692781
23.327296000000004,5.588852748326811,0.1042939243248198
23.329680000000003,5.59048465787876,0.1040913171182879
23.336844,5.555989997912326,0.1040559287068196
23.339240000000004,5.543607202239357,0.1040498443237378
23.344024000000005,5.519633006826337,0.1040346549288115
23.34642,5.509112542272924,0.1040077500545458
23.348808,5.503387675145262,0.1039248310853148
23.351188,5.503017483950794,0.1037527112209313
23.353584,5.504509623875882,0.1035631460297435
23.355972,5.504139432681416,0.1033923639341448
23.358352000000004,5.505631572606505,0.1032032198418033
23.360748,5.503910906971678,0.1030661656654327
23.363136000000004,5.502330010963711,0.1029195684470814
23.365516,5.497676079022687,0.1028177152906051
23.367916,5.492742607827944,0.1027331247639316
23.3703,5.487948906260061,0.102639505819749
23.372684,5.481432643199482,0.1025553517686644
23.375080000000004,5.479060351258596,0.1024081162489363
23.377468,5.478690160064129,0.1022339838365925
23.379852,5.484977897414969,0.1019861892055239
23.382248000000004,5.495549375512364,0.1016650473870296
23.384636,5.5090541199159535,0.1013091086051082
23.387032,5.519206289132767,0.1010157243204778
23.389432,5.52907891909586,0.1007421720230063
23.391820000000003,5.5400224842455925,0.1004499101494802
23.394204,5.548684409395187,0.1002027598941398
23.3966,5.549757240439694,0.1000364898554811
23.401372,5.530391650997323,0.1000137796278371
23.403776,5.520243273496248,0.10000586228538
23.40616,5.512096996741589,0.0999711568809049
23.40854,5.507443064800567,0.0998667132180855
23.410936,5.506513795098658,0.0997273420900606
23.413324000000003,5.514524093942193,0.0994781660800727
23.415704,5.524955802412728,0.0991766474290309
23.418100000000003,5.538460546816318,0.098834158840796
23.420484,5.554619018272383,0.0984750592332943
23.422868,5.562489547489059,0.0982354547399349
23.425264,5.568078436705598,0.0980385469201596
23.427652,5.570734059615942,0.0978757118256879
23.430032000000004,5.573249912899426,0.0977222645436124
23.43244,5.572832499876714,0.0976022368829494
23.434824,5.575488122787059,0.0974405064353818
23.437204,5.575070709764347,0.0973200918012537
23.4396,5.574932835995356,0.0971826853528968
23.441988,5.575865897413004,0.0970283860636317
23.444368000000004,5.5833171177490994,0.0968167569927323
23.446764,5.596402553272108,0.0965025448591715
23.449148,5.611210550287813,0.0961776595909817
23.451532,5.623876676930242,0.0958886859284578
23.453936,5.634540702826253,0.0956267224422089
23.45632,5.645856355028322,0.0953752703725977
23.4587,5.655309676110834,0.0951413828393614
23.4611,5.653961097528345,0.0950294877736922
23.463484,5.654986706744609,0.0949201357158737
23.465868,5.653730675960736,0.0948514203388934
23.468264,5.649401609243808,0.0948221115193272
23.470652,5.650287448833213,0.0947208770145729
23.473036,5.650381892489699,0.0946184162801096
23.475432,5.651547271332824,0.0944995780830148
23.47782,5.650990088683252,0.0943879383722885
23.480216,5.651224301966598,0.0942768288438189
23.482612000000003,5.652529450436584,0.0941503602527844
23.485,5.658769965959181,0.093969344375929
23.48738,5.663660007041419,0.0938208386654027
23.489776,5.669620983310296,0.0936570714039903
23.492164,5.671717527713199,0.0935323635186385
23.494544,5.67325499360866,0.0934414288660376
23.49694,5.677725725810318,0.0933204692732012
23.499328,5.67926319170578,0.0932291970333671
23.501708,5.679589952787744,0.0931618209118714
23.504104,5.681918814616124,0.0930721284010569
23.506492,5.684387446071365,0.0929743743809684
23.508876,5.689509804579082,0.0928617405381462
23.51128,5.690767731220824,0.0927872099715043
23.513664,5.6920256578625645,0.0927126794048623
23.516048,5.699429656370418,0.0925618493817942
23.518444,5.705622950064772,0.0924353150503778
23.520832,5.716751610811737,0.0922570178485581
23.523216,5.728951206745341,0.0920644629325568
23.525612,5.740731493798364,0.0918958028001578
23.528,5.752791320105109,0.0917111760043024
23.53038,5.760707175292159,0.0915797162879758
23.532776,5.765969303426735,0.0914624201498949
23.535164,5.778448438614061,0.0912586548533575
23.537548,5.790787804174525,0.0910644956345812
23.539944,5.804198104921629,0.0908553254094551
23.542332,5.815746074549176,0.0906596669473654
23.544728,5.825711252310885,0.0904630709074967
23.547124000000004,5.843033206752205,0.0901738670108951
23.549512,5.863707736380301,0.0898345422733818
23.551896,5.877444798209367,0.0895644980256804
23.554292000000004,5.890902320784713,0.0893108063571849
23.55668,5.903847986680863,0.0890383623280828
23.55906,5.918144127017371,0.0887350809877109
23.561456,5.929646770674544,0.0884497558802544
23.563844000000003,5.937284982465743,0.0882016951121255
23.566224,5.9430608631373865,0.087965684390722
23.568620000000003,5.946183016756554,0.0877428562676428
23.571004,5.945161199256028,0.0875686935063431
23.573388,5.946281252128779,0.0873658970660874
23.575784,5.94712176574781,0.0871790672892881
23.578168,5.951175084926756,0.0869490845804381
23.580568,5.952015598545787,0.086761137723235
23.58296,5.941914442872954,0.0866832253235421
23.585348000000003,5.931021891267204,0.0866033402298931
23.587732000000003,5.921340044474952,0.0865009655337309
23.597292000000003,5.858912313573038,0.0864052126509966
23.59968,5.846389748273208,0.0863684302737576
23.60206,5.834006952600239,0.0863236506428276
23.604456,5.827211150285939,0.0862426045325402
23.606844,5.819484182411862,0.0861671048409004
23.60924,5.8188344519636725,0.0860195482797543
23.611636000000004,5.818976117448401,0.0858742773558026
23.614024,5.822470358119907,0.0856807910546014
23.616408,5.824474354724193,0.085523849539352
23.618804000000004,5.833695358381227,0.085289116261241
23.621188000000004,5.842124966105345,0.0850532691549995
23.623568,5.852696444202739,0.0847922067721079
23.625964000000003,5.863407691926995,0.0845254997819535
23.628352,5.8773317452111655,0.0842179855790899
23.630736,5.898193266294365,0.0838469493532385
23.633132000000003,5.916773147377427,0.0835090541664577
23.635516000000003,5.93414232364699,0.0831940346095435
23.637896,5.952861974356912,0.0828506805655859
23.640292,5.9763772224925855,0.082473387118801
23.64268,6.008040643240786,0.0820152969551647
23.64508,6.034908466563237,0.0815916891165109
23.647476,6.057911858019713,0.0812027159255551
23.649864,6.07998408391641,0.0808189862930683
23.652244000000003,6.095118842014079,0.0804959141451218
23.65464,6.113186866417943,0.0801517682801194
23.657028000000004,6.128321624515611,0.0798355747002754
23.659408,6.137589850000889,0.0795622074707978
23.661804000000004,6.146298996978727,0.0793204872658748
23.664192,6.15929188470312,0.0790305676354805
23.666572,6.170142902054234,0.0787694223347445
23.668968,6.180993919405349,0.0785090328642956
23.671356000000003,6.190122375263768,0.0782524122414511
23.67374,6.197248730375769,0.0780129707459496
23.676136,6.207448121420827,0.0777478510877146
23.678524000000003,6.2168561165329645,0.077482154671419
23.68092,6.229476917205018,0.0771816026333803
23.68332,6.243308422690571,0.0768638181896224
23.685704,6.258071093735903,0.0765437716709305
23.688088,6.273392843288676,0.0762003207499744
23.690484,6.280426650602061,0.0759318301287319
23.692868000000004,6.292675364221778,0.0756153366130953
23.695252000000004,6.301990811535299,0.0753168794423815
23.697648,6.311585798102541,0.0750039541999957
23.700036000000004,6.32960849653603,0.0746124576572092
23.702416,6.346839799036602,0.0742218037921532
23.704816,6.358995964857702,0.0738699402116506
23.707204000000004,6.378508907358411,0.073448469925778
23.709584,6.400583029112978,0.0729891668457774
23.711984,6.418001323068653,0.0725508149704906
23.714372000000004,6.430763789225437,0.0721307487283783
23.716752,6.443805794635941,0.0716982187424785
23.719148000000004,6.456847800046447,0.0712671004065486
23.721536,6.4728230717631465,0.0708208217523756
23.723916000000003,6.485865077173651,0.0703952462569049
23.726312,6.495182420345042,0.0699825942500857
23.728700000000003,6.504127676464095,0.0695480387581907
23.731084000000003,6.5099998966500925,0.0691364226257302
23.73348,6.51694305202273,0.0687179759874169
23.735868000000004,6.514946638849921,0.0683521295964663
23.738264,6.517653275304245,0.0679251215884899
23.74066,6.518497580639014,0.0675060266718554
23.743048,6.523346087466617,0.0670613136557801
23.745428000000004,6.536063227653028,0.0665802404266041
23.747828,6.541842900040408,0.0661413856109533
23.750216,6.544269997241012,0.0657365438973086
23.7526,6.553494792613786,0.0653003736187533
23.754996,6.5624400487328405,0.0648813704759152
23.757384,6.566170398545561,0.0645019545807648
23.759768,6.569341669850842,0.0641467921662553
23.762164,6.575446207462318,0.0637770369604741
23.764552,6.580991666566353,0.0634340750534268
23.766932000000004,6.586257586416667,0.0631047200642314
23.769328,6.587379535147288,0.0628042599275179
23.771716,6.584077973504494,0.062543973219084
23.774100000000004,6.587154801153286,0.0622754174341347
23.776496,6.590324176600697,0.0620447991779898
23.778884,6.598149379847,0.0618041750474
23.781264,6.603553173466304,0.0615948088315847
23.783664,6.615335356377197,0.061375993741112
23.786052,6.627349856713567,0.0611888363276297
23.788432,6.638805278542497,0.0610282807270034
23.790832,6.651191865931204,0.0608674674622614
23.79322,6.654359345520746,0.0607635468073726
23.795604000000004,6.657759142535764,0.0606894279795388
23.798,6.666234076230255,0.0605874374635083
23.800388,6.672846678805191,0.0604899793253257
23.802768,6.674244375073793,0.0604265227280078
23.805164,6.680577438395008,0.0603422133289594
23.807556,6.692125408022553,0.0602246395896834
23.809940000000005,6.706047565448856,0.0601220060988138
23.81234,6.721040658061795,0.0600118191043005
23.814724,6.738035851421151,0.0598930920838091
23.817104,6.7571729151537845,0.0597586718388939
23.8195,6.7847376907526655,0.0595687023184806
23.821888,6.80350266743296,0.0594113780965865
23.824268000000004,6.818542981874143,0.0592597175762884
23.826672,6.827996302956656,0.0591175413744689
23.829056,6.83651845847939,0.0589766737866171
23.831436000000004,6.843318052509429,0.0588326747011014
23.83384,6.849466020233409,0.0586780529695363
23.836228,6.853611887210973,0.0585321853346573
