Time,Force,Position
22.823048,3.868533143092775,0.163616492216939
22.825428,3.877145950556257,0.163415972522823
22.827824,3.89162529063213,0.1630244419657449
22.830212,3.899679019588171,0.1628851077527423
22.832592,3.913227194104265,0.1625261942679377
22.834992,3.9254248941800007,0.1622423314999837
22.837376,3.9333388535091816,0.1621194083006891
22.839756,3.948469819891112,0.1617445205106405
22.842156,3.962669620713264,0.1613964141979766
22.844544,3.976589882281696,0.1610754595925913
22.84694,3.990370374223267,0.1607615034678154
22.849336,4.005501340605197,0.1603839273978679
22.851724,4.021982781427487,0.1599342141706794
22.854104,4.038603991876635,0.1594753195538029
22.8565,4.053502640833089,0.1590595024512527
22.858888,4.066166871617647,0.1586671234529795
22.861272,4.072405491282375,0.158514340114466
22.863672,4.075850614267768,0.1584386891566282
22.86606,4.0812978379995775,0.1582981443053738
22.86844,4.090609493597361,0.1580400452686517
22.870836,4.104065120314839,0.1576440803497751
22.873224,4.118731451845815,0.1572107937579679
22.875604,4.127810790018121,0.1569262914314556
22.878,4.143315739310258,0.1564198256317412
22.880388,4.152674616736284,0.1561116645703557
22.882768,4.1593797671098365,0.1558604822501546
22.885164,4.172370758976359,0.1553985960304786
22.887552,4.176282412670576,0.1552203824536248
22.889932,4.1816843104320105,0.1549663265310168
22.892332,4.187505517074027,0.1546720822699823
22.89472,4.1973309252088775,0.1542564547295238
22.897116,4.203012362224034,0.1539757955007182
22.899512,4.2088335688660505,0.1536826810866513
22.9019,4.214515005881207,0.1534049802616244
22.90428,4.219125507709724,0.1531631805110312
22.90668,4.223176931030801,0.1529729616368502
22.909064,4.2316518647252925,0.1526191259059505
22.911444,4.244130999912618,0.1521442665320677
22.91384,4.25274570323397,0.1517774455044919
22.94968,4.203359977742559,0.1517016998783981
22.952068,4.203035112518465,0.1516037103959594
22.954448,4.206202592108006,0.1513746434691135
22.956848,4.2082991365109095,0.1511816385126534
22.959236,4.207322644980756,0.1510805877922414
22.96162,4.210769663824019,0.1508286124137417
22.964016,4.214076913040421,0.1505899575644192
22.9664,4.224321630055852,0.1501603043307575
22.968784,4.235125425578723,0.1496687083915032
22.97118,4.242204558862482,0.1492674080112002
22.973568,4.242206454720352,0.1490728718763253
22.975964,4.239135314645166,0.1489722045120341
22.97836,4.241790937555509,0.1487242429339076
22.980748,4.253014041958961,0.1481971675758281
22.983132,4.264237146362413,0.147675606235391
23.038092,4.077956987196994,0.1473458319755987
23.040472,4.073582594509692,0.1472317839583444
23.042876,4.065995396262474,0.1472193549278056
23.04526,4.059339363575035,0.147186631465689
23.047644,4.060272424992684,0.1469691081769547
23.05004,4.069074119769139,0.1465377727930474
23.052428,4.074523239358817,0.1462209702053317
23.054808,4.08383679081447,0.1458042596790377
23.057208,4.094221277456761,0.1453481851261999
23.059596,4.107678800032106,0.1448021142931428
23.061976,4.1227191144732895,0.1442397894262854
23.064372,4.138830364101111,0.1436509246506856
23.06676,4.152659973728794,0.1431488000707095
23.06914,4.17142495040909,0.142524004941642
23.07154,4.187116891156331,0.1419911049965352
23.073924,4.20238952302299,0.141498554132252
23.076308,4.212726787837039,0.1411307315479852
23.078704,4.224646844516923,0.1407469296103612
23.081092,4.242852742689779,0.1401853746356983
23.083472,4.263991907168828,0.139559419220161
23.085872,4.288855733886991,0.138860252225063
23.088256,4.3067820928061264,0.1383441933013664
23.090652,4.322566581351984,0.1378873321744276
23.093048,4.340353170644258,0.1373791978378843
23.095432,4.355206493630337,0.1369480205746636
23.097812,4.368849111802918,0.1365690562811102
23.100216,4.388637801841609,0.1360277143379361
23.102604,4.406284621507024,0.1355535041867235
23.104984,4.424722837105356,0.1350715404660958
23.107384,4.437154750464437,0.1347363910269815
23.109772,4.448795267890599,0.1344095255659368
23.112152,4.458293914943487,0.1341469696011045
23.114552,4.469143036436733,0.1338312746187923
23.11694,4.473846086063867,0.1336752404730201
23.11932,4.477478200504364,0.1335478854884039
23.12172,4.483112415691276,0.1333731142368395
23.150388,4.4632840872558175,0.1332140022870183
23.152776,4.4634710787109215,0.1331392086098898
23.15516,4.471526703524832,0.1328958038914672
23.157556,4.478511393152104,0.1326801925804524
23.159948,4.4856358524062365,0.1324533598330325
23.162328,4.492480772406648,0.1322512403381366
23.164724,4.504261059459672,0.1319442445853571
23.167112,4.52018531763239,0.1315372767196801
23.169492,4.531174208752496,0.131234838248776
23.171888,4.5369481935662686,0.1310614767015417
23.174276,4.540720077633626,0.1309326247885562
23.17666,4.553571299873288,0.1305992324648241
23.179064,4.572568593979061,0.1301213705949061
23.181452,4.594219615137308,0.1295989922757383
23.183832,4.621457629654227,0.1289755834872029
23.186228,4.643340968237952,0.1284925938630422
23.188616,4.662151270888622,0.1280887102430136
23.191,4.68217227835279,0.1276471486815521
23.193396,4.705917948056071,0.1271447344726188
23.195784,4.728452912945855,0.1266829394524537
23.198168,4.745261114850108,0.1263328424435346
23.200564,4.754852309701613,0.126151119049145
23.202952,4.762441403806699,0.1260162456137653
23.205332,4.773755160150898,0.1258208585151695
23.207728,4.784929146868238,0.1256366928529787
23.210116,4.794101032839162,0.1254938968001687
23.2125,4.799408486944111,0.1254242614444676
23.2149,4.802434301048923,0.1254178934258712
23.217288,4.811466417392985,0.1252889037302726
23.219668,4.822780173737186,0.1250956330657671
23.222064,4.836235800454662,0.1248509666859941
23.224452,4.841822793813332,0.1247609544904215
23.226832,4.84354535530603,0.1247420350643298
23.229228,4.848620491985502,0.1246372350266895
23.231616,4.851041901612499,0.1245663003765893
23.234,4.861611483852024,0.1243292148144663
23.236396,4.874322936464826,0.1240450773113784
23.238784,4.887965554637407,0.1237503721855225
23.24118,4.896952345011096,0.1235265163547276
23.24358,4.908360545011782,0.1232361124944918
23.245968,4.922702011318663,0.1228937171063353
23.248348,4.942537923185598,0.1224194163828916
23.250744,4.959440568746337,0.1219986040567616
23.253132,4.972618552067964,0.121634754578625
23.255516,4.986727700949368,0.1212583801955198
23.257912,4.9992540579649365,0.1208845745111243
23.2603,5.012851350167143,0.1204859854790225
23.26268,5.0277991168097085,0.1200443380706494
23.26508,5.03860291233258,0.1196906354771046
23.267464,5.05033787341523,0.1193250360304812
23.269844,5.06058259043066,0.1190145356497807
23.272244,5.074971278565784,0.1186179274324488
23.274632,5.091222297820466,0.1181951503732372
23.277012,5.104400281142092,0.1178377531994532
23.279408,5.117718034090578,0.1174713527267382
23.281796,5.125169254426673,0.1172076605960622
23.28418,5.129687208456573,0.1169934622904603
23.28658,5.130340730620501,0.1168402003907182
23.288968,5.133647979836903,0.1166584230880169
23.291348,5.134673589053168,0.1165326300078539
23.293748,5.133976636776737,0.11642216232482
23.296136,5.131137814127028,0.1163564129753567
23.298516,5.128438761104179,0.1162806845770581
23.300916,5.127090182521689,0.1161628643758971
23.303304,5.12602114319292,0.1160258337534256
23.305688,5.130818636476541,0.1157962661568404
23.308084,5.135755899387023,0.115557400795603
23.310472,5.140553392670643,0.115329797747688
23.312852,5.149774396327678,0.1150081355073339
23.315252,5.158343773678656,0.1146807851205437
23.31764,5.17068503509699,0.1142551397277299
23.320024,5.181815591701825,0.1138616646709039
23.32242,5.194017083493298,0.113451184092974
23.324808,5.204216474538356,0.1130712026457487
23.327192,5.216138427076109,0.1126808445927368
23.329592,5.227920609987002,0.1122983609445437
23.331976,5.238771627338117,0.1119250519897595
23.33436,5.253906385435786,0.1114699349659225
23.336756,5.265316481294342,0.1110579668970839
23.339148,5.275004015660201,0.110657611288279
23.341532,5.285203406705257,0.1102738736102493
23.343928,5.294471632190535,0.1099012265908034
23.346316,5.305462419168511,0.1095156128164124
23.348696,5.31910693319896,0.109110191858624
23.351092,5.329818180923216,0.1087478165333064
23.35348,5.3363854575277765,0.1084603858544115
23.355864,5.343883899692115,0.1081634805044595
23.35826,5.349520010736897,0.107888701815979
23.360648,5.346868179542291,0.1077565047369586
23.363032,5.344728205026884,0.1076417763201921
23.365428,5.338164720138062,0.1076162740342325
23.370196,5.321313088121304,0.1076071248956175
23.372596,5.315820538419121,0.1075612614221229
23.374984,5.307674261664463,0.1075370360315011
23.377368,5.300459150469583,0.107502509294639
23.379764,5.298039636700454,0.1074067231913885
23.382152,5.295200814050745,0.1073386792056863
23.384532,5.299951085506122,0.1071816345530562
23.386932,5.309496954387252,0.1069666460556457
23.38932,5.318530966589184,0.1067340947894001
23.391704,5.329427309910674,0.1064821430572548
23.3941,5.33673876061991,0.1062599255146491
23.396488,5.339114844276533,0.1061060843758514
23.398872,5.346286525358908,0.1058948157549177
23.401268,5.354668911254782,0.1056555479484385
23.403656,5.363702923456715,0.105426631827398
23.40604,5.375670201964842,0.1051612106218152
23.40844,5.3936437827122194,0.1048073029073511
23.410828,5.408684097153402,0.104490529490678
23.413208,5.421722310848168,0.1041991310825606
23.415604,5.436622855662489,0.1038907837887785
23.417992,5.45301364454403,0.1035336089354801
23.420372,5.4663313974925165,0.1032279662099962
23.422768,5.484304978239894,0.102877949705808
23.425156,5.505491364547188,0.1024767612325785
23.427536,5.524535880481205,0.1021168458491616
23.429936,5.539715964549248,0.1018031387965386
23.432324,5.550379990445259,0.1015306731868158
23.434704,5.55489794447516,0.1013471309763609
23.4371,5.565002891863729,0.1011126266827026
23.439488,5.57496806962544,0.100888025477772
23.441868,5.590520240745821,0.1006114746094339
23.444268,5.60593264223934,0.100340449595791
23.446656,5.613196871120333,0.10018265645674
23.449052,5.622043891867162,0.100025568023586
23.451448,5.628237185561516,0.099886775573915
23.453836,5.632288608882593,0.0997834461191082
23.456216,5.637410967390308,0.0996639963080706
23.458616,5.6458859010848,0.0994846915194691
23.461004,5.659156432205043,0.099253198409708
23.463384,5.6704248625788685,0.0990491659313996
23.465784,5.686488890378446,0.0987975570630412
23.468172,5.702273378924303,0.0985628451873983
23.470556,5.71205156523091,0.0984045025817538
23.472952,5.717546010790964,0.0983134785621191
23.47534,5.722109290791239,0.0982308242415421
23.477724,5.727603736351292,0.0981393454773308
23.480124,5.732678873030764,0.0980731444605775
23.482512,5.7431086856434295,0.0979237183529473
23.484892,5.744738699337509,0.0978736331970058
23.487292,5.744646151538892,0.0978315222149631
23.48968,5.7418998766878,0.0978054158212888
23.49206,5.746230839262596,0.0976907187920778
23.494456,5.761783010382977,0.0974317320420506
23.496844,5.773610519264244,0.0972043718723743
23.499228,5.785438028145511,0.0969764026129675
23.501624,5.798336472213417,0.0967330474660854
23.504012,5.808301649975128,0.0965226427136804
23.506396,5.819709849975814,0.096323817291119
23.508792,5.830606193297302,0.0961102465093613
23.51118,5.841362766991931,0.0959049723169975
23.51356,5.84397116807403,0.0958004227657716
23.51596,5.846859108409851,0.0956796983112239
23.518348,5.850817983932311,0.0955424876297503
23.520732,5.855196168335352,0.0953803382403764
23.523128,5.857712021618837,0.0952329051398012
23.525516,5.861298810088959,0.0950693857683289
23.5279,5.865444677066522,0.0948732678661812
23.530296,5.870521709603864,0.0946721547381071
23.532684,5.8805341091938175,0.0944159700267965
23.535064,5.892408839903326,0.0941451814215417
23.537464,5.90693729766531,0.0938627260709715
23.539852,5.915599222814905,0.0936432775073715
23.542232,5.915321579419054,0.0935215331426665
23.544628,5.919187907142896,0.0933478402442946
23.547016,5.927058436359572,0.0931315214734126
23.5494,5.935068735203109,0.0929086626244951
23.5518,5.946943465912619,0.0926521299301167
23.554188,5.951368872143902,0.0924492357847238
23.556568,5.956585674308105,0.0922490353219736
23.558968,5.961942246099167,0.092041167652602
23.561356,5.9717223282636445,0.0917656709489643
23.563736,5.982713115241619,0.091469168522523
23.566136,5.994914607033094,0.0911501887207844
23.568524,6.01098053069054,0.0907994949977836
23.570908,6.0291883247212645,0.0904191289030677
23.573316,6.049537989125265,0.0900130604936925
23.575704,6.069887653529267,0.0896091192157401
23.578088,6.084231015694018,0.0892677869451277
23.580484,6.0977829819258496,0.0889265459451793
23.582872,6.109612386664986,0.088590943703084
23.585256,6.11813643804559,0.0882595306871597
23.587652,6.12279605756022,0.0879574969216373
23.59004,6.1286663818883484,0.0876312595760672
23.592424,6.1323948358432006,0.0873347005246595
23.59482,6.130116987558802,0.0870988153159134
23.597208,6.126907973714626,0.0868694926711924
23.599588,6.119974297631336,0.0866649702291056
23.601984,6.122259729347212,0.0863603988874958
23.604372,6.120029102891055,0.0860778254810416
23.606756,6.118869411621539,0.0857822989152944
23.609152,6.1183613466580775,0.0854967961990684
23.61154,6.115851180948202,0.085230618661048
23.613924,6.11054751855899,0.0849805976297023
23.61632,6.09844615799761,0.0847852329439483
23.618708,6.084622235943535,0.0845926821218741
23.621092,6.06972737870282,0.0844130833223387
23.623488,6.053621816648607,0.0842533707273133
23.625876,6.038587189781032,0.0840798136614916
23.628256,6.0238321021671775,0.0838901978129104
23.630652,6.011079115299741,0.0836814345823456
23.63304,5.997906819551721,0.0834944211198104
23.63542,5.991671991602733,0.0832457762850124
23.637816,5.988230660333078,0.0829805512041449
23.640208,5.9850688683171445,0.0827002293547775
23.642588,5.982698472234128,0.0824200591770836
23.644988,5.978325975404696,0.0821576916926355
23.647376,5.972742773761763,0.0819150772138957
23.64976,5.96059419137214,0.0817587567188421
23.652156,5.953753063087467,0.0815854541425144
23.654548,5.945189373310098,0.0814147595621826
23.656928,5.936905222786447,0.0812289999636843
23.659328,5.9274103674493,0.0810628692153774
23.661716,5.923502505470822,0.0808656905521396
23.6641,5.924250471291236,0.0806419515244689
23.666496,5.9265812289774855,0.0804227849394844
23.668884,5.925187324424623,0.0802236440790181
23.671264,5.923793419871759,0.0800239582367366
23.67366,5.926263947184869,0.0797964010824248
23.676048,5.927244230430759,0.0796045117812334
23.678432,5.92701380886315,0.0794334079112817
23.680828,5.926643617668683,0.0792694679888833
23.683216,5.925202491287576,0.0791189332727665
23.6856,5.924832300093107,0.0789568421891679
23.687996,5.926184670391335,0.0787935784676815
23.690384,5.932891716622756,0.0785702250357427
23.692764,5.940529928413955,0.0783413040972133
23.695164,5.953383046511487,0.0780605098757915
23.697552,5.969588739795796,0.0777358861273321
23.699932,5.9802074397214335,0.077439157341277
23.702332,5.9894756652067125,0.0771685102197814
23.704716,5.997393416251631,0.0769258636840064
23.7071,6.008104663975886,0.0766692446650588
23.709496,6.013880544647528,0.0764508132805985
23.711884,6.017654324572753,0.0762488888950019
23.714264,6.025292536363953,0.0760237338554371
23.716664,6.036375871140545,0.0757954694930558
23.719052,6.0513236377831126,0.0755439840804595
23.721436,6.06440907330612,0.0753029126460133
23.723832,6.080288005508464,0.0750496268740453
23.726224,6.09537554177789,0.074793437464925
23.728604,6.112604948420593,0.0745146611117062
23.731,6.128903189503517,0.0742416346839238
23.733388,6.143059560213164,0.0739933524188807
23.735772,6.151349398310421,0.0737834060533199
23.738168,6.155495265287984,0.0736124976253756
23.740556,6.161643233011963,0.0734267881327889
23.742936,6.16243652480275,0.0732971741147198
23.745332,6.162950277339817,0.0731824975225023
23.74772,6.165186591369581,0.073066739313167
23.750104,6.170495941332399,0.0729249866857164
23.7525,6.17529343461602,0.0727653287648942
23.754888,6.178647905660665,0.0725917530363767
23.757268,6.186146347825005,0.0723818741632065
23.759664,6.195274803683423,0.0721325363767226
23.762052,6.197605561369672,0.0719238153353943
23.764436,6.2004953975633645,0.0716873960288768
23.766832,6.199660571517942,0.0714660463243477
23.76922,6.202690177338493,0.071225549945645
23.771604,6.20320582573343,0.0709816022550027
23.774,6.2055838052479215,0.0707312573614516
23.776388,6.207822015135554,0.070488931073216
23.778768,6.2088495202096885,0.0702636619264405
23.781164,6.21108773009732,0.0700218084679849
23.783552,6.219192472597343,0.0697461590393933
23.785936,6.228228380657145,0.0694671688441741
23.788332,6.237264288716946,0.0691897461758501
23.790724,6.249652771963524,0.0688749055352548
23.793104,6.260318693717403,0.0685598988433058
23.7955,6.275268356217838,0.0682067929419407
23.797888,6.292220119464692,0.0678444580604728
23.800272,6.310614904950518,0.0674976922852793
23.802668,6.333665518235238,0.0671401390236081
23.805056,6.3548538004004,0.0667912804310709
23.807436,6.378136731110596,0.0664713519503066
23.809832,6.4064947985002645,0.0661182203412966
23.81222,6.431360521076297,0.0658072717408838
23.81462,6.455946704398609,0.065509402501714
23.817016,6.472664254362114,0.0652534965276907
23.819404,6.489521573952479,0.06499111903658
23.821788,6.505168188729346,0.0647456473445258
23.824184,6.519092242013517,0.0644990730892481
23.826572,6.536089331230742,0.0642325020153997
23.828956,6.548942449328274,0.063995674201854
23.831352,6.560724632239167,0.0637696341976154
23.833744,6.57250681515006,0.0635439350514372
23.836124,6.582286897314536,0.0633300800575714
23.838524,6.589925109105735,0.0631346998573652
23.840912,6.595281680896797,0.0629628814889822
23.843296,6.596634051195024,0.0628143626021447
23.845692,6.591048953694224,0.0627011221834686
23.84808,6.583881064327587,0.0625788790001307
23.850464,6.57084664234856,0.062482731559531
23.852864,6.559395012235369,0.0623953540574664
23.855252,6.5423563887635074,0.0623204164009338
23.857636,6.5201028589853145,0.0622817896581167
23.860032,6.501993300326816,0.0622149688858054
23.86242,6.482952576108538,0.0621501004367774
23.864804,6.466845118196455,0.0620719594753957
23.867204,6.456324653643042,0.0619811542462559
23.869592,6.443150462037155,0.0618893656698336
23.871972,6.430907435991045,0.0617950469006912
23.874372,6.4169418484522405,0.0616976346740741
23.87676,6.408703023898966,0.0615820737855079
23.879144,6.401954443412908,0.0614385672310274
23.88154,6.395345632553712,0.0612884111082479
23.883932,6.389807756881155,0.0611296384003847
23.886312,6.385201046768376,0.0609688465314005
23.888712,6.386460869267988,0.060784368968858
23.8911,6.386230447700379,0.0606271633452585
23.893484,6.39279772430494,0.0604442442366319
23.89588,6.400156396842418,0.0602661939439942
23.898272,6.409377400499455,0.0600843355664276
23.900656,6.414733972290516,0.0599161227821643
23.903052,6.424234515201272,0.0597210170876008
23.905444,6.440020899604998,0.0594832182748491
23.907824,6.451011686582973,0.0592605953418775
23.910224,6.468288315053919,0.0589969966182186
23.912612,6.487427274644422,0.0587306737035364
23.914992,6.49655573050284,0.058513168834928
23.917392,6.511410949346788,0.0582802635223447
23.91978,6.524915693750377,0.0580683962711322
23.922164,6.53599902852697,0.0578855474739302
23.92456,6.546430736997504,0.0576931890229035
23.926952,6.552299165467763,0.0575460788436468
23.929336,6.556025723564745,0.0574145362234966
23.931732,6.559472742408008,0.0572961277886952
23.93412,6.565992797184324,0.0571615407398502
23.936504,6.567996793788612,0.057027532890847
23.938904,6.573213595952812,0.0568699501952435
23.941292,6.572424095877763,0.0567396755803547
23.94368,6.571634595802715,0.0566094410972036
23.94608,6.571776261287445,0.0564781629060998
23.948468,6.574059797145451,0.0563311636907548
23.950852,6.577134728936375,0.0561902747583274
23.953248,6.576996855167385,0.0560728131746858
23.955636,6.57951270845087,0.0559578350646282
23.958024,6.575882489868242,0.0558753774663886
