Time,Force,Position
5.5845,6.708254310079711,0.1561174866610328
5.586895999999999,6.789250546917471,0.1556858840966478
5.615572,6.839941420878862,0.1553921128967928
5.61796,6.845947723118112,0.1552846245301829
5.620339999999999,6.858844271328148,0.1550979806759293
5.622743999999999,6.867457078791633,0.1549975621120807
5.625131999999999,6.8735559288295,0.1549237870172568
5.627507999999999,6.8820761884943655,0.1547894727996651
5.629911999999999,6.890503900360613,0.1546194426804887
5.632296,6.901492791480719,0.1543813109910081
5.63468,6.9150428618546815,0.1540762493529521
5.637075999999999,6.927289679616529,0.1537661202417944
5.63946,6.941259058871073,0.1534330134084
5.64184,6.95704354741693,0.1531173331105379
5.644243999999999,6.971058252641848,0.1528635478902273
5.646632,6.990240642344856,0.1525480985871531
5.649011999999999,7.000343693875556,0.1524016907094308
5.651403999999999,7.01226185469757,0.1522703619578968
5.653791999999999,7.0349346933563455,0.1519966159838318
5.656184,7.059097776082339,0.1516843711046522
5.658588,7.090013231010128,0.1511879639829449
5.660976,7.118182411086824,0.1506883693778512
5.663356,7.1419753026183495,0.1502466702769852
5.665752,7.155106064111732,0.1499824187137737
5.668135999999999,7.161346579634329,0.149792762664938
5.670515999999999,7.169915956985308,0.1495113509100328
5.672912,7.176902542470448,0.1492402248201895
5.6753,7.1882654165007605,0.1489214600920701
5.677679999999999,7.208660406875135,0.1484920651190713
5.680076,7.227704922809153,0.1481006032689787
5.682464,7.241162445384498,0.1477859013431513
5.684856,7.257925321318377,0.147442989204821
5.687256,7.276969837252394,0.1470526246644578
5.689644,7.292197143148679,0.146682935277722
5.692019999999999,7.314688677925959,0.1461538494035548
5.694415999999999,7.329498570799534,0.1456965624372404
5.6968,7.347521269233024,0.1451759346789383
5.699195999999999,7.367965377293513,0.1446078435960273
5.701599999999999,7.385615988674665,0.144085680707244
5.703984,7.394466801137229,0.1436942684536097
5.706363999999999,7.396100606547047,0.1434246646435123
5.70876,7.399409751621317,0.1431763977342231
5.711148,7.407327502666234,0.142909134511166
5.713528,7.418318289644211,0.1425921591754102
5.715919999999999,7.435967005167494,0.1421856357577806
5.718304,7.458131778862808,0.1417311431560281
5.720699999999999,7.482530970730019,0.1412694201983618
5.723103999999999,7.504136665917893,0.1408485287680838
5.725487999999999,7.516570475134845,0.1405391280516211
5.727867999999999,7.526118239873845,0.1402317443125249
5.730271999999999,7.538319731665318,0.1398950375831363
5.732659999999999,7.550381453829932,0.1395673643371145
5.73504,7.567099003793437,0.1391888549637103
5.737444,7.586610050436279,0.1387790053759486
5.739827999999999,7.595551514839592,0.138545044575568
5.742208,7.612826247452668,0.1382483141849751
5.744612,7.634989125290114,0.1379237902383829
5.747,7.6568724638738415,0.1376200336144281
5.749379999999999,7.676521384285674,0.1373236200391405
5.751783999999999,7.699475658056038,0.1370005858145329
5.754168,7.7273180770507714,0.136646242055593
5.756547999999999,7.761446337538475,0.1361964039294527
5.758951999999999,7.790454135376335,0.1357566517339387
5.761339999999999,7.81494587504216,0.1353637056622698
5.763719999999999,7.830218506908818,0.135106014056988
5.766116,7.839158075454264,0.1349835374901837
5.768504,7.848609500678906,0.1348711018550643
5.770883999999999,7.858340465157273,0.1347461193556546
5.773287999999999,7.874729358180943,0.134542418314139
5.775672,7.897169879414239,0.1343242004288558
5.778051999999999,7.920354574752213,0.1341384719741685
5.780448,7.945681140463463,0.1339214037246238
5.782836,7.96183582020379,0.1338019186503495
5.785216,7.976919564757477,0.1337009271385913
5.787611999999999,7.996100058602617,0.1335739556990365
5.789999999999999,8.015560091701476,0.133435688612543
5.797167999999999,8.034413824464652,0.1333614261467818
5.799548,8.042839640473032,0.1333378922497723
5.801952,8.053407326854686,0.1332823281170356
5.804335999999999,8.058807328758254,0.1332666127118752
5.80672,8.067233144766632,0.1332451475498397
5.80912,8.082688976372658,0.1331673989485805
5.811508,8.109318794696023,0.132975034803591
5.813884,8.14386446820644,0.132652465007679
5.816288,8.175012240559708,0.1323187192966517
5.818676,8.20150418511408,0.1320326140929751
5.821055999999999,8.221989827429205,0.1318245940869212
5.823459999999999,8.242382921945712,0.1315911115596418
5.825847999999999,8.263242547171041,0.1313036753969576
5.828227999999999,8.27879471829142,0.1310606742665061
5.830624,8.300073652397332,0.1307564546173741
5.833012,8.319862342436023,0.1304872287056085
5.835391999999999,8.342072442101712,0.1301751183852842
5.837795999999999,8.35855577878187,0.1299242574293027
5.840183999999999,8.378763777701144,0.1296374198403315
5.842568,8.404558769979086,0.1292933956339963
5.844959999999999,8.429702135950972,0.128943963772915
5.847348,8.449165960765567,0.1286237174072737
5.849727999999999,8.46146000035566,0.1283647855762577
5.852131999999999,8.472683104759112,0.128121569800192
5.854519999999999,8.48074062543089,0.1278906945129994
5.8569,8.480557425691526,0.1277355990908784
5.859295999999999,8.471761418488681,0.1276396926354589
5.861684,8.454445151620968,0.1276302048883325
5.864063999999999,8.443507274044844,0.1275638449274833
5.86646,8.437364993894471,0.1274468602574093
5.868848,8.433224814490517,0.1273057405834919
5.871228,8.422286936914393,0.1272389883561124
5.873624,8.412000685644326,0.1271753667482423
5.876011999999999,8.401574664747399,0.127117920969291
5.878392,8.386632585678441,0.1270978479538751
5.880796,8.369875397318172,0.1270607729146649
5.883184,8.348741920412728,0.1270549826747732
5.885563999999999,8.33217172350756,0.1269763222685926
5.88796,8.312947799549917,0.126917077396937
5.890348,8.293351788539937,0.1268408150888998
5.892728,8.279901849396069,0.1266873014188088
5.895132,8.269105637304675,0.1265137336988673
5.89752,8.259892217079114,0.1263346658893262
5.899899999999999,8.251609962413331,0.1261467002347236
5.902296,8.243187938120691,0.1259645427594787
5.904679999999999,8.240632446440438,0.1257177404134486
5.907064,8.243384408865138,0.1254312163772967
5.909467999999999,8.250931968715589,0.1250944817139979
5.911856,8.251681830393872,0.1248312896669818
5.914235999999999,8.24870702983304,0.124602541580236
5.916632,8.243078502219733,0.1243927096517373
5.919015999999999,8.2413144064724,0.1241413097150084
5.921396,8.238758914792149,0.1238926664371365
5.9238,8.239276459044952,0.1236056775414601
5.926188,8.240305859976953,0.1233280242533168
5.928568,8.246363175760184,0.1230243522977427
5.930964,8.256145153782526,0.122686265282865
5.933351999999999,8.262574556618095,0.1223990132059958
5.935732,8.268864189826802,0.1221177174705481
5.938127999999999,8.275665679714708,0.1218477274644077
5.940515999999999,8.277531802550001,0.1216335184095127
5.942895999999999,8.279258155758434,0.1214262351220284
5.945292,8.283266148967007,0.1211836169270583
5.94768,8.287413911802439,0.1209351933471094
5.950075999999999,8.291701444264731,0.1206803280295495
5.952472,8.29226431448791,0.1204584696007274
5.95486,8.293106723964808,0.1202256587390691
5.957239999999999,8.293809363814846,0.1199996880013101
5.959643999999999,8.300378536277275,0.1197142819277968
5.962031999999999,8.308949809486121,0.1194066955151474
5.964411999999999,8.325249946426915,0.119025869782546
5.966808,8.341550083367709,0.1186457681355439
5.969196,8.358501846614558,0.1182712638865552
5.971575999999999,8.37638477542119,0.1178919007919129
5.973972,8.397620279414596,0.1174671054329854
5.97636,8.41433972523597,0.1170755352260236
5.97874,8.429057070310927,0.11670589103514
5.981143999999999,8.4457765161323,0.1163146208320228
5.983528,8.464498062700093,0.115903297110595
5.985911999999999,8.480286342961689,0.1155204019465462
5.988315999999999,8.494584379156066,0.1151675982795793
5.990699999999999,8.506880314604025,0.1148362426206893
5.993079999999999,8.521038581171545,0.1144918388498577
5.995479999999999,8.53477753885848,0.1141657117551617
5.997864,8.549028353224612,0.1138499802911
6.000243999999999,8.564861959456582,0.1135310201275845
6.00264,8.57548065938222,0.1132728823462913
6.005027999999999,8.58437679781516,0.1130240601506686
6.007408,8.590479439568766,0.1127986086668421
6.009808,8.59737347725529,0.1125725525019387
6.012191999999999,8.597469816769646,0.1124092091485182
6.014576,8.596634990724224,0.1122528658166308
6.016971999999999,8.59100456725305,0.1121374539107247
6.019359999999999,8.58136994228904,0.1120619882868611
6.021756,8.567451576578478,0.1120379071672107
6.024151999999999,8.55618693792039,0.111998370681425
6.026539999999999,8.548507191874556,0.1119364082810955
6.028919999999999,8.541479072134779,0.1118790521852602
6.031319999999999,8.531889773141145,0.1118646546149792
6.033707999999999,8.525233740453706,0.1118234815371472
6.036088,8.52179051332618,0.1117439506065742
6.038487999999999,8.518347286198656,0.1116642811912278
6.040875999999999,8.511691253511218,0.1116228946568257
6.043256,8.505035220823778,0.1115815081224237
6.045651999999999,8.499450123322978,0.1115273541911842
6.04804,8.494796191381958,0.1114662811720767
6.050424,8.493587382426329,0.1113891585188873
6.052819999999999,8.494752761269453,0.1113089020900958
6.055204,8.49335696085872,0.1112713956004455
6.057587999999999,8.492473017127184,0.111244515483425
6.059991999999999,8.4956858226871,0.1112066280328942
6.062375999999999,8.500341650485993,0.1111724724287771
6.064755999999999,8.512726342016832,0.1110722717372613
6.067152,8.528556156533062,0.1109563579250042
6.06954,8.548250402915267,0.1108075125663643
6.071919999999999,8.56887581485725,0.1106531662660518
6.074316,8.5867077301199,0.1105202308966732
6.076703999999999,8.607752450942462,0.1103521938493992
6.079096,8.632009977324945,0.1101474400761142
6.081491999999999,8.656779360386619,0.1099545242394698
6.083879999999999,8.681269204194578,0.1097740706385057
6.086259999999999,8.710414875801424,0.1095627829838284
6.088656,8.743424979274245,0.1093212296559207
6.091044,8.779508118680122,0.1090513069175633
6.093423999999999,8.817593358832418,0.108766158738684
6.09582,8.857401160477407,0.1084765650592432
6.098208,8.899770141376255,0.1081496305304177
6.100603999999999,8.939066086342049,0.1078523381778974
6.103004,8.983437167987313,0.1075078199468889
6.105392,9.02836732814002,0.1071447088318019
6.107771999999999,9.07199423568061,0.1067747293143185
6.110175999999999,9.119904883967752,0.1063637228070907
6.11256,9.16101783408273,0.1060068389702132
6.114939999999999,9.201618927518506,0.1056419763835793
6.117348,9.241149085767644,0.1052905416467429
6.119731999999999,9.275883646591032,0.1049735932317462
6.122112,9.309407502600925,0.104672706015009
6.124516,9.342000193051032,0.1043826355283294
6.126904,9.373661717941369,0.1041002335667553
6.129284,9.4048113861525,0.1038094016615597
6.131687999999999,9.437311528803992,0.1034993273621967
6.134072,9.465155843656593,0.1032191564402306
6.136455999999999,9.49155713627022,0.1029372134098626
6.138852,9.51609609776429,0.1026686203482698
6.141235999999999,9.540123202579162,0.1023932658272304
6.143616,9.562847054781916,0.1021104424564062
6.14602,9.583848345491976,0.1018356946076972
6.148408,9.60969245545603,0.1015014432723031
6.150787999999999,9.632091442434692,0.1011792941933808
6.153184,9.651557163107157,0.1008786156179989
6.155571999999999,9.668369156727149,0.1005884386490356
6.157952,9.674519020309,0.100368739475039
6.160347999999999,9.68695472538382,0.1000943407006181
6.162735999999999,9.697667868965944,0.0998254570918767
6.165115999999999,9.70800892549573,0.0995423438601528
6.167515999999999,9.722633722772072,0.0992192377641681
6.169903999999999,9.739959468929127,0.098856927065052
6.172283999999999,9.751418682473796,0.09853458992082
6.174679999999999,9.761434873779487,0.0982076778043679
6.177064,9.770659669152264,0.0978815235315925
6.179447999999999,9.77602003265906,0.0975800389419157
6.181851999999999,9.781799705046442,0.0972634599931605
6.184239999999999,9.784366571873909,0.0969760960272037
6.18662,9.786281812395314,0.0966842460698153
6.189015999999999,9.78298214661039,0.0964356911390358
6.191403999999999,9.774747113772854,0.0962199959447947
6.193783999999999,9.76437021056204,0.0960234304285365
6.196187999999999,9.746636530671616,0.0958886601794841
6.198575999999999,9.729834016340972,0.0957487905933611
6.200956,9.714381976450689,0.0955890843465002
6.20336,9.701723433239732,0.0954152286848726
6.205748,9.701217264134144,0.095152321811123
6.208128,9.69749828946864,0.0949184581813475
6.210524,9.693919084429991,0.0946794166311838
6.212911999999999,9.693412915324402,0.0944183440100409
6.215292,9.69369814215173,0.0941587424499858
6.217687999999999,9.693983368979058,0.0939000168907639
6.220075999999999,9.696550235806528,0.0936175571370966
6.222455999999999,9.69897733300713,0.0933397139873844
6.224852,9.700473264647956,0.093066125245557
6.22724,9.70504223222184,0.0927703570272667
6.229623999999999,9.712264926848198,0.0924676581330423
6.232019999999999,9.72242088778075,0.0921476402742156
6.234404,9.730295208713164,0.0918500553757548
6.236787999999999,9.738309299272435,0.0915459923294553
6.239187999999999,9.752050152817244,0.0912118935808157
6.241576,9.763928675242491,0.0908850956193913
6.243955999999999,9.781161873600931,0.0905126244042101
6.246352,9.796532740839815,0.0901484536216309
6.24874,9.811344529571263,0.0898044185191743
6.25112,9.823223051996512,0.0894777732179777
6.253515999999999,9.826022236249456,0.0892135136732703
6.255903999999999,9.832034226062314,0.0889241394624636
6.258284,9.840699942927646,0.0886285339795802
6.260679999999999,9.841077717553592,0.0883927334297472
6.263067999999999,9.839593161059978,0.0881653282049451
6.265468,9.833824863819812,0.0879720610830742
6.267863999999999,9.829779128072342,0.0877759086445192
6.270251999999999,9.826524788257792,0.0875805738244431
6.272632,9.823549987696962,0.0873755074213842
6.275027999999999,9.819504251949493,0.087179182084798
6.277415999999999,9.811594084336049,0.0870024246585079
6.279795999999999,9.801309728923853,0.0868223104600456
6.282195999999999,9.793167243884934,0.0866250629743284
6.28458,9.789820356271765,0.0864046393186087
6.286963999999999,9.78461113753904,0.086191912211013
6.28936,9.785408221045564,0.0859437176520229
6.291748,9.786717161231287,0.0857069886785601
6.294127999999999,9.791890533282986,0.0854519363368183
6.296524,9.797483214215264,0.0851832304308862
6.298912,9.807359635894098,0.0848827697758753
6.301295999999999,9.82203165499868,0.0845607406622718
6.303692,9.831488767796932,0.0842751362637897
6.30608,9.838012614288989,0.0840048938620637
6.308472,9.849611597460516,0.0837027678094652
6.310875999999999,9.858277314325848,0.0834148651742918
6.313264,9.871878398243792,0.0831009845404424
6.315643999999999,9.882685985482404,0.082797375255588
6.318047999999999,9.893633342347874,0.0824895998992946
6.320432,9.905092555892542,0.0821927854569385
6.322816,9.916551769437213,0.0818965446959065
6.32522,9.930013083728294,0.0815890656941334
6.327603999999999,9.945057189885215,0.0812846166960309
6.329984,9.95716802973594,0.0809939494981471
6.332379999999999,9.968068164773168,0.0807169961124405
6.334767999999999,9.98204133574345,0.080423159011049
6.337147999999999,9.99280170115382,0.0801538660915717
6.339551999999999,10.00090833951171,0.0798898005640737
6.341939999999999,10.007012877123186,0.0796372778446178
6.344324,10.009764839547886,0.0794113364768628
6.34672,10.00795352197231,0.0792246427045154
6.349103999999999,10.00227777253076,0.0790542383099212
6.351483999999999,9.99860412383563,0.0788731799468829
6.353883999999999,9.99292837439408,0.0787019064167897
6.356268,9.991117056818506,0.0785151975116669
6.358647999999999,9.994101336668685,0.0783096286432848
6.361051999999999,9.994152350212664,0.0781174523290451
6.363439999999999,9.9977882563689,0.077918709284595
6.365819999999999,10.001144623271411,0.0777291391200378
6.368215999999999,10.003290285360428,0.0775512463351264
6.370604,10.006087573755504,0.0773798879803397
6.372983999999999,10.01153858920305,0.0772055252640663
6.375387999999999,10.018851935770158,0.0770264387164202
6.377772,10.031752275695933,0.0768315848783486
6.380151999999999,10.042138658196093,0.0766359136532016
6.382555999999999,10.045959659949562,0.0764874106415101
6.384943999999999,10.046707625769974,0.076355379334616
6.387324,10.047176052336669,0.0762321066794754
6.389719999999999,10.047085400395918,0.0761267032947823
6.392107999999999,10.052069885134642,0.0759947884124036
6.394484,10.06119834099306,0.0758392122413908
6.396887999999999,10.07004725759776,0.0756920296149524
6.399275999999999,10.078896174202455,0.0755450867415958
6.401655999999999,10.093332084165828,0.0753827286888401
6.404052,10.105486354129056,0.0752402907532523
6.40644,10.112565487412814,0.0751238469950808
6.408819999999999,10.122438117375909,0.0750001995186048
6.41122,10.1311000425255,0.074888381648288
6.413603999999999,10.139110341369038,0.0747703108453325
6.415984,10.151264611332271,0.0746296734654167
6.418388,10.165560751668778,0.0744763788217688
6.420772,10.178274100139449,0.0743203142076991
6.423152,10.189916513423482,0.0741718012858676
6.425552,10.19997613484168,0.0740203214730553
6.427935999999999,10.215622749618545,0.0738559590520789
6.430332,10.236624040328604,0.0736587105834869
6.432736,10.263491863651057,0.0734395462684805
6.435124,10.29222201809306,0.0732161564534072
6.437503999999999,10.323513351788922,0.0729678666473631
6.439904,10.354664915857924,0.0727257978384889
6.442292,10.380461803993736,0.072515895279241
6.444671999999999,10.41119405918216,0.072287070466813
6.447068,10.439784443997306,0.0720709108355967
6.449456,10.467862972133256,0.0718461774919188
6.451836,10.488072866910398,0.0716503076593374
6.454231999999999,10.514289063926787,0.0714291311146761
6.456619999999999,10.537432225010123,0.0712233725058171
6.459,10.559132363854486,0.0710095174742361
6.461404,10.5844173953111,0.0707925459688316
6.463787999999999,10.607700326021297,0.0705855214993752
6.466172,10.625256493745963,0.0703955373893421
6.468567999999999,10.639599855910715,0.0702244707260226
6.470951999999999,10.654734614008383,0.0700563564065849
6.473331999999999,10.669589832852331,0.0698974115593921
6.475731999999999,10.678578519083889,0.0697590821583507
6.478116,10.685425334942169,0.0696333563178398
6.480495999999999,10.689618423747971,0.0695097632009534
6.482892,10.69516198699414,0.0693725059618445
6.48528,10.699494845426806,0.069245868482885
6.487675999999999,10.699963271993498,0.0691306798627754
6.490072,10.706065913747103,0.0689778174264952
6.492455999999999,10.711516929194651,0.0688195794945383
6.494835999999999,10.719529123896056,0.0686374365825539
6.497231999999999,10.725399448224186,0.0684675108143702
6.49962,10.7407684196052,0.0682493212113964
6.501999999999999,10.75427505986666,0.0680358829782675
6.504396,10.767269843448922,0.0678116327175799
6.506784,10.78212695815074,0.0675845076291106
6.509179999999999,10.791397079493889,0.0673676491360524
6.511576,10.799736035277258,0.0671528768575356
6.513964,10.81086848773996,0.0669328574781067
6.51634,10.824003040949083,0.0667053507382675
6.518744,10.834483867105728,0.0664791027795135
6.521127999999999,10.8423109662099,0.0662537454175845
6.523508,10.851209000500717,0.0660223202623853
6.525912,10.859734947739184,0.0657765139981515
6.5283,10.867329729417882,0.0655324185281513
6.53068,10.874133115163657,0.0652870284115137
6.533075999999999,10.87735160829718,0.0650434634613573
6.535463999999999,10.881641036617342,0.0647938738644799
6.537844,10.888723961616838,0.0645419797539662
6.540251999999999,10.889940354003944,0.0643064904102599
6.542636,10.894741639003303,0.0640705574588125
6.545015999999999,10.899962232883246,0.063823103662452
6.547416,10.90210979083013,0.0635886089277592
6.549804,10.901603621724542,0.0633541219541121
6.552183999999999,10.904030718925146,0.0631119031400059
6.554587999999999,10.905806189819693,0.0628636240257748
6.556975999999999,10.916800768513406,0.0625822030821539
6.559355999999999,10.929145821647476,0.0622887280688914
