Time,Force,Position
4.140052,6.310964062686404,0.1645422065542864
4.142436000000001,6.353042129184315,0.1644975103108171
4.144816,6.384743292471415,0.1642582146942261
4.14722,6.392098173293156,0.1642174356697157
4.149608,6.393308878106653,0.1641850716630556
4.151988,6.399734489226486,0.164046293967766
4.1543920000000005,6.408813827398792,0.1638692025552209
4.156776,6.42613388598224,0.1635602888931721
4.159160000000001,6.446759297924222,0.1632116416098121
4.161556,6.472552394344295,0.1628008889329304
4.163944,6.505607823787491,0.1623240196828827
4.166324,6.554026537038094,0.1616496954589944
4.16872,6.612640849618015,0.16081585620033
4.171107999999999,6.661896284771911,0.1601963129538796
4.173488,6.708218453619611,0.1596516103091774
4.175884000000001,6.765295300304071,0.1589552921706253
4.178272000000001,6.825397961093342,0.1582374767042939
4.180651999999999,6.8772599014714695,0.157634680598718
4.183056,6.935734444424533,0.1568160290822522
4.185444,6.99416366140722,0.1559077760718568
4.187824,7.03899748204557,0.1552771632612546
4.190220000000001,7.076986382683509,0.1548324431323897
4.192608000000001,7.113624808881087,0.1544378303480187
4.194992,7.15096208321297,0.1540036448117137
4.197388000000001,7.179546780454508,0.15369029658536
4.199776000000001,7.200774701016438,0.1535331391691039
4.202156,7.231965903482209,0.1532471169857138
4.2045520000000005,7.260643148522364,0.1529878793203946
4.20694,7.289227845763904,0.1526960184924963
4.209320000000001,7.312784628154213,0.1524584893349041
4.211723999999999,7.333315596439709,0.1522411232563939
4.214108,7.350541211366675,0.1520582495493077
4.216492,7.379686882973525,0.1516560783846423
4.218888000000001,7.409019546035476,0.1512025246969955
4.2212760000000005,7.430950106447447,0.1508120454244868
4.223652,7.443476463463013,0.1505197532533143
4.226048,7.455863050851722,0.1502353527512549
4.228435999999999,7.480726877569884,0.1498026764775688
4.230832,7.507453035407605,0.1493489379283413
4.233236000000001,7.539905956230855,0.1488191428453318
4.2356240000000005,7.576363078546938,0.1482237180419148
4.238004000000001,7.612121352728724,0.1476649279790938
4.240408,7.641873324671256,0.1472002619656348
4.242792000000001,7.670601583255392,0.1467196861733275
4.245171999999999,7.700355451055796,0.1461519093737923
4.247568,7.722846985833074,0.1456327732711859
4.249956,7.736398952064908,0.145259697618584
4.252339999999999,7.756980933894387,0.1448165401136154
4.254736,7.775048958298251,0.1443939071291171
4.257124,7.78757721117169,0.1440018959702839
4.259504000000001,7.7938668443804,0.1436790383093606
4.261904,7.79731575908153,0.1434309253217575
4.264292,7.790567178595474,0.1433829041272894
4.266668,7.790476526654725,0.1432470517695142
4.269063999999999,7.792108436206672,0.1430942030352746
4.271452000000001,7.796533842437956,0.1429064350659267
4.273832,7.805754846094992,0.1426563013261996
4.276228000000001,7.813672597139911,0.1424046917435303
4.278612,7.816422663706742,0.1421995914847301
4.281008000000001,7.804553620570841,0.1421593910450308
4.283404,7.790030850382464,0.1421459636856818
4.285792,7.78472718799325,0.1419910615500307
4.288172,7.795160792321653,0.1416244957680852
4.290576000000001,7.808387893329391,0.1412288110190465
4.292964,7.81728403176233,0.14093772634481
4.295344000000001,7.829298532098702,0.1406633869883307
4.29774,7.847551652099798,0.1403299294420305
4.300128,7.864501519488782,0.1399982746779171
4.302508,7.882150235012065,0.139632224072515
4.304904,7.900310807214545,0.1392699766754347
4.307292,7.924290690201175,0.1388652609752981
4.3096760000000005,7.954416645053916,0.1383728535473449
4.312068000000001,7.987151000988757,0.1377944731096858
4.314456000000001,8.009130679086837,0.1373223382586848
4.316852,8.027245925318944,0.1368935425478109
4.319248000000001,8.043591388230112,0.1365158177923315
4.321636000000001,8.059936851141279,0.1361455185292175
4.324015999999999,8.074699522186615,0.1357865395433083
4.326408,8.089462193231943,0.135424930255453
4.328796,8.116422564353012,0.1349526980459878
4.331188,8.148271080698448,0.1344534628584529
4.333592,8.168945610326544,0.1340853162163525
4.335976,8.17406986469213,0.1338800233755783
4.338360000000001,8.169183615325633,0.1338058223110094
4.340764000000001,8.168953193758025,0.1336814781757597
4.343148,8.17864072812388,0.1333971287376745
4.345528000000001,8.183207799839897,0.1331196682679231
4.347931999999999,8.17632134558485,0.1329712306475839
4.350320000000001,8.168968360620978,0.1328773478755467
4.402868000000001,7.999065719332017,0.1327892986868927
4.405264,8.00293015119799,0.132744769858942
4.407652,8.017177173848388,0.1325885521084877
4.410032,8.038920742805251,0.1323211149284931
4.412427999999999,8.05619547541833,0.1320606133593328
4.414816000000001,8.067324136165295,0.1318828208570471
4.417196,8.082130237323131,0.1317013237641146
4.419592000000001,8.10703939001167,0.1314227857345904
4.421976,8.13185599490159,0.1311177271320678
4.424372000000001,8.147593261619205,0.1309279093151591
4.426768,8.161700514642742,0.1307791249131835
4.429156,8.175108919531976,0.130662731194637
4.431536,8.193220374048343,0.1304626918394449
4.433932,8.206723222594064,0.1302758873416163
4.436319999999999,8.21864327927395,0.1300941655089673
4.4387,8.235870790058783,0.1298686928338145
4.441096000000001,8.25696273270959,0.1295990359600096
4.443484000000001,8.277822357934923,0.1293081542765879
4.445868,8.292443363495526,0.1290717082809954
4.448264000000001,8.305154816108328,0.1288898135632223
4.450648,8.319029751706385,0.1287219949057562
4.453031999999999,8.331973521744663,0.1285659430781597
4.455436,8.339470068051133,0.1284591005954135
4.457820000000001,8.342031247304991,0.1284102804501713
4.460204,8.346407535850163,0.1283782648250543
4.462600000000001,8.359723392940781,0.1282425147388712
4.464988000000001,8.374529494098617,0.1280735565052514
4.467368,8.383748601897784,0.1279588926766022
4.4697640000000005,8.390965608950534,0.1278682207418308
4.472152,8.408752198242809,0.127636239438817
4.474548,8.429611823468138,0.1273656416538156
4.4769440000000005,8.451961692760687,0.1270624689099357
4.479332,8.472309461306818,0.1267842724673939
4.481712000000001,8.495031417651704,0.1264998028433677
4.484108,8.523759676235843,0.1261480117042704
4.486496,8.546761171834449,0.1258529149372375
4.488876,8.564827300380443,0.1256118509441189
4.491280000000001,8.581682724112937,0.125392115166659
4.493668,8.603193975644325,0.1251309970026701
4.496048000000001,8.625264305683155,0.1248453117062257
4.498444,8.642166951243896,0.1245910702211636
4.500832,8.655344934565523,0.1243717292091485
4.503212,8.667451982700511,0.1241659365558085
4.505608,8.679838570089217,0.1239482698902954
4.507996,8.691853070425587,0.123715200859051
4.510376,8.695067771843371,0.1235768149806414
4.512776,8.696280372514739,0.1234612208008236
4.515160000000001,8.697632742812967,0.1233397034799679
4.517544,8.698193717178276,0.1232204151269363
4.519940000000001,8.69391187228959,0.1231822591985348
4.522328000000001,8.691771897774183,0.1231159769694462
4.524712,8.687909361766078,0.1230598563643443
4.527107999999999,8.683395199451917,0.1229998395038487
4.529496000000001,8.675575683779224,0.1229540734814118
4.531892,8.66496267142719,0.1229315758160183
4.534288000000001,8.658773169448576,0.1228480655724469
4.536672,8.656867408216517,0.1227092377350013
4.539052000000001,8.655520725491895,0.1225469356673861
4.54146,8.650728919781882,0.1224045886065089
4.543844000000001,8.647287588512226,0.1222370236715316
4.546224,8.650783725041602,0.1219976012941412
4.5486200000000006,8.653488465638059,0.1217594246337423
4.551008,8.65940601179443,0.1214802617742329
4.553388000000001,8.668396593883855,0.1211679694761252
4.555791999999999,8.68046021190634,0.1208232097768002
4.558179999999999,8.694945239555823,0.1204385927006967
4.56056,8.709570036832162,0.1200475534364886
4.562964,8.723263668548721,0.1196642365693259
4.565352,8.739890566571479,0.1192536741221503
4.567732,8.759218413474953,0.1187948117347503
4.570128,8.774821598139313,0.1183682777574849
4.572515999999999,8.790005473923092,0.1179584029588989
4.574896,8.806911911199569,0.1175402594029481
4.577292000000001,8.82540114034188,0.1171183310269947
4.579680000000001,8.840957103177999,0.1167247426302431
4.582059999999999,8.857164692320174,0.1163379277961243
4.584464,8.87230134627571,0.115965471224321
4.586848000000001,8.890091727283721,0.1155798205839371
4.589227999999999,8.904809072358677,0.1152251971275474
4.591632,8.917524316687217,0.1148916595491553
4.59402,8.927957921015619,0.1145917146292819
4.5964,8.942395726836853,0.1142530491819951
4.5988,8.95683353265809,0.1139161832592077
4.601188,8.96726713698649,0.1136198378130851
4.603568,8.974348166128115,0.1133678184640466
4.605963999999999,8.981941051948938,0.1131258291667361
4.608348,8.991396268889318,0.1128706582557049
4.610728000000001,9.002574047322398,0.1126078597266
4.613136,9.012680890568836,0.1123588686584502
4.615520000000001,9.020645863442,0.1121353473129112
4.6179,9.028331297061442,0.1119226091977507
4.620296000000001,9.03936930586766,0.1116687902534825
4.6226840000000005,9.0494761491141,0.1114222539096102
4.625064000000001,9.061724862733818,0.11115289513866
4.627468,9.07555636821937,0.1108810337841801
4.629855999999999,9.085523441838951,0.1106408601737869
4.632236,9.094279810645032,0.1104179712740721
4.63464,9.096890107585002,0.1102557898391776
4.637028,9.107229268256916,0.1100315180078279
4.639408,9.122224256727726,0.1097770184542565
4.641804,9.135496683705838,0.1095301196143315
4.644191999999999,9.147558405870452,0.1093019926104498
4.646572,9.15747825766179,0.1090975133238906
4.648976,9.163393907960293,0.1089275257309766
4.65136,9.168797701579596,0.1087474859221734
4.65374,9.177274531131957,0.1085389140782742
4.656144,9.186030899938036,0.1083206055180144
4.658532,9.195066807997838,0.108092467153475
4.660912000000001,9.201309219378306,0.10788262992581
4.663316000000001,9.20941396187833,0.1076615103575748
4.665704000000001,9.220591740311406,0.1074123405223544
4.668084,9.230419044304126,0.1071864893863092
4.670488,9.242388218670124,0.1069394551422933
4.672872000000001,9.252634831543425,0.106700141932133
4.675252,9.263300753297305,0.1064453462612432
4.6776480000000005,9.279181581357516,0.1061418117223426
4.680036,9.298694523858227,0.1057910413968088
4.682416000000001,9.321699811172572,0.1053959952760805
4.684819999999999,9.340049270688024,0.1050318991370027
4.687208000000001,9.35066986647153,0.1047237509326922
4.689588,9.3614302318819,0.1044101800478762
4.691984000000001,9.368326165426293,0.104123811022905
4.694368,9.376432803784184,0.1038214210608598
4.696752000000001,9.392268305874024,0.103463217695233
4.699148,9.407964038337004,0.1031100504682971
4.701531999999999,9.418724403747367,0.1027961431707312
4.703916,9.42613219397096,0.1025197867602237
4.706312,9.42860461714194,0.1022810122497371
4.708696000000001,9.432939371432472,0.1020308316395842
4.71108,9.432618297924115,0.1018082959868313
4.713476000000001,9.42722208773629,0.1016289587437316
4.71586,9.421314020869266,0.1014395791032318
4.718255999999999,9.413124314002102,0.1012769437433962
4.720652,9.40372390232144,0.1011298628068832
4.72304,9.39325255545414,0.1009931180221769
4.725420000000001,9.378497467840283,0.1008983099440508
4.727816,9.360110265785934,0.1008499147133447
4.730204,9.340652128544944,0.1008113260539329
4.732584,9.321845617610013,0.1007774692288388
4.734984,9.308765869660611,0.1007068339808062
4.737368000000001,9.29633774801727,0.100641044717065
4.739752,9.28791382786676,0.1005437886493726
4.742144000000001,9.282423174022446,0.1004258595656763
4.744532,9.27348739719274,0.1003181946798916
4.746928,9.26548278592281,0.1002052552578059
4.749332,9.261622145772574,0.1000566320905576
4.751716000000001,9.25897221043584,0.0998923110697027
4.754096,9.262188807711494,0.0996870349201085
4.7565,9.268338671293344,0.0994625084898852
4.758888,9.27649063562161,0.0992221158762362
4.761268,9.28771563588293,0.0989556181493784
4.763664,9.295308521703756,0.0987344363016275
4.766051999999999,9.301039076405024,0.0985230266538215
4.768432,9.30835242297213,0.0983119282528491
4.770836,9.31752810065879,0.0980910404964733
4.773224,9.32884564871873,0.0978501701716799
4.775604,9.343515771965444,0.0975745140394184
4.778008000000001,9.358697751891356,0.0973092879649868
4.780392,9.373879731817269,0.0970443084125933
4.7827720000000005,9.389992877302957,0.0967766360801685
4.785172,9.408247893161924,0.0964903036061451
4.787556,9.4223589379012,0.0962383154158212
4.7899400000000005,9.43232601152078,0.0960219469948169
4.792336,9.443736107379332,0.0958116248959615
4.794720000000001,9.457008534357444,0.0955927324595523
4.7971,9.46692838614878,0.0954087458744899
4.799500000000001,9.480852439432956,0.0951970838454937
4.801888000000001,9.49077229122429,0.0950143503767223
4.804272,9.49882981189607,0.0948421048692212
4.806667999999999,9.51154316036674,0.0946483908571487
4.809056000000001,9.527189775143608,0.0944376235212429
4.811436,9.550332936226944,0.0941620847015772
4.8138320000000006,9.576409363616476,0.0938684581961108
4.81622,9.600763229513309,0.0935789315198177
4.818604,9.623254764290587,0.0932988627489943
4.821000000000001,9.645606529441006,0.093025202777181
4.8233880000000005,9.667818524964565,0.0927589138095837
4.825768000000001,9.693383095674896,0.0924622109954842
4.828168000000001,9.71801650082545,0.0921696884282878
4.830552,9.739065013363753,0.0918906998977743
4.832935999999999,9.75718025959586,0.0916300598343604
4.835332,9.784095304746554,0.0913193301525673
4.837724000000001,9.813012450643663,0.0909961210780954
4.840103999999999,9.839136099861438,0.0906851760866253
4.842508,9.863257648332796,0.0903884740331178
4.844892000000001,9.888729671244516,0.0900734721859028
4.847276,9.912059823782952,0.0897785873425171
4.849672000000001,9.939254408187365,0.0894634649607959
4.852056,9.96537805740514,0.0891583153487278
4.854451999999999,9.985495404383665,0.0888921481525535
4.856848,10.002819254682857,0.088639364744149
4.859236,10.013997033115931,0.0884295129837966
4.861616000000001,10.02545435080273,0.0882113118057861
4.864020000000001,10.03798260367617,0.0879846895547085
4.866408000000001,10.05437528841558,0.0877394637346066
4.868788,10.069836807595212,0.0874986723646045
4.871192,10.08222529084179,0.0872788608775402
4.87358,10.09140096852845,0.0870849297968932
4.87596,10.102858286215248,0.0868703412750325
4.878355999999999,10.114967230208109,0.086661434059124
4.880744000000001,10.133222246067074,0.0864146588984118
4.883124,10.145098872634454,0.0861898915023912
4.8855200000000005,10.155113168082275,0.0859723575798545
4.887908,10.169271434649792,0.0857279180149219
4.890288000000001,10.18505971491139,0.0854584795179283
4.892684,10.201779160732762,0.0851866170721832
4.895072,10.21770721062122,0.0849144499436839
4.897456000000001,10.23112130308406,0.0846441566761241
4.899852,10.242812834054206,0.0843758534896945
4.902235999999999,10.255854839464709,0.0840902167780495
4.904616,10.265963578569018,0.0838185002876048
4.907012000000001,10.28142699360652,0.0835089885267416
4.909396,10.29167550233769,0.0832331196491797
4.911791999999999,10.302343319949436,0.0829443835706882
4.914188,10.311428345695353,0.0826549113818226
4.916576,10.322795011441404,0.0823470337253332
4.9189560000000006,10.337374482747368,0.0820173823048005
4.921360000000001,10.353444198120558,0.0816679932232501
4.923748000000001,10.37272671905366,0.081299573249545
4.926127999999999,10.388564117001367,0.0809332923371591
4.928524,10.398255443082968,0.0806044602210276
4.930912,10.407667229910842,0.0802842292161193
4.933292000000001,10.41828972155222,0.0799525614535161
4.935688,10.428120817260677,0.0796211610917386
4.938076,10.43846376964833,0.0793016591015014
4.940456,10.451879757969044,0.0789676259698322
4.942848000000001,10.463433415170195,0.0786389486967693
4.945236,10.478711734610464,0.0783009570089971
4.947632,10.49464168035679,0.0779682751604696
4.950036,10.511642561289753,0.0776290989153735
4.952420000000001,10.534649744461968,0.0772621973309242
4.9548,10.553512956514489,0.0769203750664921
4.957204,10.57866201005998,0.0765418118553261
4.959592,10.60339175472489,0.0761770519448435
4.961972,10.626910794576302,0.0758248168150799
4.964372,10.64642563293488,0.0754920090090764
4.966755999999999,10.663146974614126,0.0751677813797149
4.969136,10.676795280360311,0.0748596988593375
4.971532000000001,10.686020075733088,0.0745839139359543
4.973920000000001,10.701902799651169,0.0742879809471265
4.976299999999999,10.71392109170328,0.074004104910288
4.978700000000001,10.724868448568747,0.0737261906543437
4.981088000000001,10.7355362661805,0.0734571524561737
4.983467999999999,10.742851508605476,0.0732119518483543
4.985872,10.74443998804492,0.0729844077513271
4.988256000000001,10.733224467072946,0.0728065377450504
4.99064,10.724662673153444,0.0726258930583571
4.993044,10.714238548114384,0.0724501324295976
4.995428,10.706096063075464,0.072257381901759
4.997812000000001,10.697813808409684,0.0720687564046509
5.000208,10.686458517810848,0.071895149653248
5.002592000000001,10.672821587211876,0.0717376781166001
5.004972,10.658765347732324,0.0715928435710332
5.0073680000000005,10.643917712319851,0.0714456489672582
5.009756,10.625857271347463,0.0713166462098911
5.012136000000001,10.609659161494635,0.0711830889524981
5.014532,10.594112677947862,0.0710554454084831
5.01692,10.581359691080426,0.0709214581439252
5.019304000000001,10.56660460346657,0.0707953252813871
5.0217,10.54905601917338,0.0706749750375938
5.024088,10.539236298612138,0.0705304487122314
5.026484000000001,10.53370031879745,0.0703616214842417
5.02888,10.527372943049844,0.0701904445280283
5.031263999999999,10.523047668048656,0.0700110534943807
5.033648,10.522447055286577,0.0698234884081279
5.036044,10.53329996849556,0.0696036758571971
5.038431999999999,10.54643452170468,0.0693690453130292
5.040812,10.555285334167248,0.0691583210973157
5.043216,10.562925441816317,0.0689582711455844
5.045604,10.571356945398303,0.0687609923276935
5.0479840000000005,10.578437974539934,0.0685778747195845
5.05038,10.589662974801252,0.0683749710982788
5.052768,10.59930518319674,0.0681682098708883
5.0551520000000005,10.61080972271178,0.0679583290859657
5.057548,10.625247528533016,0.0677385167458645
5.059932000000001,10.637263924727256,0.0675384424515781
5.062312,10.64713845054822,0.0673498865150248
5.064716,10.655802271555682,0.0671717381744926
5.067104,10.663395157376508,0.0669986730899426
5.069484,10.66549359763728,0.0668585712491255
5.071879999999999,10.66344806677836,0.0667381674717542
5.074268000000001,10.6579101911058,0.0666437023096025
5.076648,10.65395510729908,0.0665540657603483
5.079044000000001,10.652002124238775,0.0664571003926252
5.081432,10.651911472298028,0.0663570206665766
5.083828,10.65196058998414,0.0662534532978216
5.0862240000000005,10.64665503173706,0.0661783329299442
5.088608,10.647355775729231,0.0660815100494677
5.090992000000001,10.645914649348123,0.0659958405020954
5.093388,10.647406789273216,0.0659018770371325
5.095771999999999,10.651971965131356,0.0657953451365674
5.098152,10.65732853692242,0.0656917745153295
5.100556,10.660263699086483,0.0656072472021679
5.102944,10.662779552369969,0.0655349838137943
5.105324,10.668508211213366,0.0654466370523728
5.10772,10.67744967561668,0.0653418584515568
5.110104000000001,10.691466276699469,0.0652181041924463
5.112488,10.706553812968892,0.0650892549380319
5.114884000000001,10.730720687410626,0.0649285917798015
5.117272000000001,10.76489806558444,0.0647340514258549
5.119663999999999,10.799354983011977,0.0645314261320636
5.12206,10.839026806745848,0.0643072299495876
5.124448,10.880049104920074,0.0640713919227516
5.126828000000001,10.92079186384058,0.0638451382976005
5.129224,10.96060345720131,0.0636216297643944
5.131612,10.996690388322929,0.0634048056761937
5.133992,11.037712686497157,0.0631742644569524
5.136396,11.075010322432268,0.062950309098638
5.138784,11.119664735046992,0.0626960748866187
5.141168,11.158452615049326,0.0624581787235863
5.1435640000000005,11.195517933558962,0.0622201340830691
5.145948,11.231652086508822,0.0619846106354486
