Time,Force,Position
6.117012,5.734437337615232,0.1687434673907162
6.119416,5.758551302655113,0.1685129318772234
6.121804,5.795748807360134,0.1679547832405702
6.1241840000000005,5.827963723184299,0.167579313901566
6.12658,5.863763531620717,0.16714883867396
6.128968,5.907339425617325,0.1665249552229591
6.131348,5.95128930252414,0.1657764427137613
6.133743999999999,6.006972244655737,0.1647671344862485
6.136131999999999,6.069220567534023,0.1636168445810085
6.138512,6.126533523359698,0.1626017721897023
6.140916,6.184218566237711,0.1616257376210906
6.143304,6.244929423220537,0.1605819703553594
6.145684,6.313089604681588,0.1593893321898927
6.148084,6.392331225061363,0.1580021695149589
6.150467999999999,6.470409362455881,0.1566645766109234
6.152852,6.540666088319836,0.1554431673286588
6.155247999999999,6.590809258921005,0.1546008686465854
6.157632,6.629918212431695,0.1539459038776921
6.160011999999999,6.675033468181634,0.1531780018310942
6.162408,6.714049873893707,0.1525045371478895
6.164791999999999,6.755999545911975,0.1517953722455934
6.167191999999999,6.803116902408331,0.1510328149375845
6.169591999999999,6.848184936330029,0.1503480224958878
6.1719800000000005,6.891902495811367,0.1497082117344935
6.174359999999999,6.937482386412261,0.1490578103217045
6.176756,6.973471082161653,0.1485760205116477
6.179144,7.008481390523022,0.1481472446410553
6.1815240000000005,7.03827679257806,0.1478247771411928
6.18392,7.065371245752378,0.1475894601385003
6.186303999999999,7.096889209300113,0.1472711024762023
6.188683999999999,7.127290911690833,0.1469071635492174
6.19108,7.165328930014884,0.1463895659511242
6.193468,7.201364847592518,0.1459096776331817
6.195863999999999,7.223153742519757,0.1456436166606558
6.19826,7.240845888155547,0.1454160440894283
6.200648,7.26203037860497,0.1451147422137289
6.203027999999999,7.2949479342791745,0.1446307127062172
6.205428,7.337968541484082,0.1440209447569143
6.207812,7.385412659062402,0.1433509783015666
6.210195999999999,7.432903998468967,0.1426444614327006
6.212599999999999,7.468941811904471,0.1420941933064771
6.214987999999999,7.494177725674973,0.1416996231274664
6.217368,7.528492977617779,0.1411688507450405
6.219772,7.568629436202602,0.1404979783649194
6.22216,7.605647532883996,0.1398206826663441
6.22454,7.6390807369531375,0.1391708867136822
6.226935999999999,7.668742056954922,0.1385920791832264
6.229323999999999,7.705061305502015,0.1379324282454692
6.231704,7.739193357705457,0.1372530332317151
6.234099999999999,7.764200745766217,0.1366465391130655
6.2364880000000005,7.77449458046776,0.1362697192140872
6.238867999999999,7.782180014087202,0.1359900187303503
6.241272,7.794241736251815,0.1356724387176134
6.243659999999999,7.814359083230341,0.1352065081072439
6.24604,7.82800549311866,0.1347790182738281
6.248444,7.837460710059041,0.134450549268429
6.250832,7.843935438864986,0.1341999081421469
6.253212,7.848734828006475,0.1339308559624446
6.255608,7.84310630039317,0.1337170390977963
6.257996,7.832030549048053,0.1335556493173273
6.260376,7.826494569233364,0.1333691527849072
6.262771999999999,7.833575598374992,0.1330580011704469
6.265159999999999,7.833394294493496,0.1327885375395834
6.26754,7.823808787215601,0.1325898800298345
6.269936,7.802722532138401,0.1325593697753291
6.272324,7.788339531576884,0.1325206282724691
6.274703999999999,7.789973336986701,0.1322672970429058
6.2771040000000005,7.785183427134557,0.1320115758830145
6.279488,7.772152796871269,0.1318366209361867
6.281871999999999,7.759167492578354,0.1317280677356747
6.284268,7.763874333921228,0.1314281507658547
6.286656,7.770398180413284,0.1310406602676952
6.289036,7.766913419031124,0.1306824600190279
6.291432,7.748343017237407,0.1305277015470257
6.293819999999999,7.734985625892155,0.1304008883343237
6.296216,7.728937789398269,0.1302003885563596
6.298611999999999,7.723216713986346,0.1299482442751931
6.300999999999999,7.706181882230225,0.1298238405980674
6.30338,7.6861193405114205,0.1298120769608352
6.305775999999999,7.676624485174273,0.1297437479294085
6.336844,7.552199707398241,0.1296342790117604
6.339223999999999,7.5648167163545565,0.1295180967672271
6.34162,7.576549781579336,0.1293743825927836
6.344008,7.586979594192002,0.1292244905641856
6.346388,7.596570789043505,0.1291146980512468
6.348783999999999,7.61612526579885,0.1289113158744395
6.351171999999999,7.640103252927608,0.128633686649054
6.353552,7.658541468525941,0.1283796956533486
6.355947999999999,7.668691741884885,0.1282433671832494
6.358336,7.682519455654699,0.1281063252666607
6.360715999999999,7.701701845357707,0.1278882960071446
6.363119999999999,7.72507542800865,0.1275730096190673
6.3655040000000005,7.749799485099954,0.1272311642949412
6.367883999999999,7.777269817042351,0.1269013825183556
6.370288,7.808185271970138,0.1265485212665967
6.372675999999999,7.840079114285949,0.1261493846226419
6.375056,7.863220379511414,0.1258187923085599
6.37746,7.888363745483299,0.1254640773895932
6.379843999999999,7.914018968134379,0.1251214578381886
6.382224,7.939022564479404,0.1247741778010648
6.384628,7.960348720413556,0.1244304950220852
6.387016,7.9736664733620435,0.1241881612551489
6.3893960000000005,7.985633751870171,0.1239743992519118
6.391799999999999,7.998112887057496,0.1237727093671393
6.394184,8.014735993364514,0.1235166729058728
6.396563999999999,8.026703271872641,0.1233062363200449
6.39896,8.039322176686829,0.123101246745709
6.401348,8.049240132620294,0.1229512482512005
6.403728,8.063302059673456,0.1227449700939756
6.406132,8.074198402994945,0.122548414040198
6.408516,8.082813106316294,0.122390490979052
6.410896,8.091008500757066,0.1222528027015235
6.4133,8.096829707399083,0.1221230079727435
6.415688,8.100184178443728,0.1219713504375037
6.418067999999999,8.098743052062622,0.1218683646589111
6.420471999999999,8.097813782360712,0.1217759953818342
6.422856,8.10326290195039,0.1216308440664271
6.425235999999999,8.106989460047375,0.1214966869473791
6.427639999999999,8.10964508295772,0.1213773262306651
6.430027999999999,8.115094202547397,0.121233196883173
6.432403999999999,8.117982142883218,0.1211369282546339
6.4348,8.126364528779094,0.1209618845765066
6.437188,8.135817849861606,0.1207720679385402
6.439568,8.141686278331862,0.1206092949193495
6.441971999999999,8.14396981418987,0.1204739288162837
6.4443600000000005,8.149466155607792,0.1202956010159346
6.446739999999999,8.1524485396001,0.1201297108181596
6.449139999999999,8.162508161018296,0.1198822275503737
6.451524,8.174709652809769,0.11960745716932
6.453907999999999,8.192637907586773,0.1192800630378905
6.456304,8.20884360087108,0.1189626946460766
6.458692,8.221836488595473,0.1186871941388637
6.461071999999999,8.234410067439285,0.1184308795898292
6.463475999999999,8.246936424454853,0.1182107026047932
6.46586,8.264118609269312,0.1179504850411349
6.468243999999999,8.278087988523858,0.1177319887933439
6.47064,8.288332705539286,0.1175461520041168
6.473028,8.302721393674414,0.117312621826566
6.475407999999999,8.318460556249896,0.1170536138329697
6.477811999999999,8.331126682892325,0.1168304490999019
6.480199999999999,8.350730277333783,0.1165364931078978
6.48258,8.363768491028548,0.1163314376141127
6.4849760000000005,8.378529266216011,0.1161179756451166
6.487364,8.397154473269444,0.1158684987436236
6.489743999999999,8.419364572935134,0.1155962193962258
6.492147999999999,8.440363967787324,0.1153456520457094
6.494535999999999,8.464808485624905,0.1150785767807925
6.496916,8.486319737156295,0.1148425317487529
6.49932,8.505409579060684,0.1146458162790183
6.501703999999999,8.516211478725687,0.1145424876414037
6.504084,8.525942443204052,0.114451832870404
6.506479999999999,8.541167853242468,0.1142898422813678
6.5088680000000005,8.55904699033336,0.1141131105874192
6.511247999999999,8.576274501118194,0.1139322074787932
6.513652,8.592850385596968,0.1137480942147192
6.516039999999999,8.615712111568714,0.1134930658620188
6.51842,8.642438269406433,0.1132054986543826
6.520815999999999,8.6648806864976,0.1129718639556205
6.523203999999999,8.689325204335184,0.1127213949979183
6.525588,8.718984628479099,0.1124157899342444
6.52798,8.741986124077705,0.1121655346378951
6.530368,8.772204626729062,0.1118404367954753
6.532747999999999,8.801911272701219,0.1115075529558933
6.535148,8.8306867531136,0.1111839598203408
6.537532,8.857739672033283,0.1108707479869619
6.539915999999999,8.882930259833412,0.1105710002059335
6.542312,8.904675724648143,0.1102874190872807
6.5447,8.927771663903238,0.1099831152563264
6.547095999999999,8.952357847225551,0.109651238742641
6.549492,8.984440576854333,0.1092356853573203
6.551875999999999,9.019596342416172,0.1087897462313367
6.55426,9.05340163353765,0.1083715344286326
6.556655999999999,9.081759700927318,0.107985818312692
6.559043999999999,9.109326372384068,0.1076009917470763
6.561424,9.135961878281035,0.1072238929039506
6.563819999999999,9.15673085156562,0.1068967524151934
6.5662080000000005,9.169631191491394,0.1066346650264619
6.568587999999999,9.182950840297751,0.1063565811885522
6.570987999999999,9.190264186864855,0.106132023068312
6.611612,8.892846669145987,0.10597134613593
6.614012,8.882792735301397,0.1059078136197051
6.616395999999999,8.873669967016587,0.1058382145255496
6.618776,8.86762023466483,0.1057403417927214
6.62118,8.868507970112104,0.1055860781829329
6.623563999999999,8.875122468544907,0.1053921497548916
6.625944,8.88909374365732,0.1051259985322679
6.628339999999999,8.908279925076066,0.1048108199087264
6.630728,8.937476610226895,0.1044125222209219
6.633107999999999,8.97011841836312,0.104003187912247
6.635511999999999,9.002760226499342,0.1035961106215856
6.6378960000000005,9.03726436575512,0.1031788480285055
6.640275999999999,9.074050145011038,0.102735239234403
6.642672,9.10883382352054,0.1023089293975297
6.64506,9.142034710164204,0.1018823509703202
6.6474400000000005,9.16801858975512,0.1015224987365943
6.649843999999999,9.18957895897262,0.1012112675632267
6.652231999999999,9.218356335242866,0.100837622720339
6.654611999999999,9.252348617819449,0.1004166429730216
6.657016,9.288482770769306,0.099975300144893
6.659399999999999,9.327689959652222,0.0995123863206885
6.661779999999999,9.359168284803186,0.09910688152567
6.664179999999999,9.390506840327296,0.0987089043474635
6.666567999999999,9.42370772697096,0.0983027252449621
6.668947999999999,9.448900210628956,0.0979590192507336
6.671352,9.473301298354034,0.0976185530765521
6.673735999999999,9.49234771014592,0.0973298704372856
6.676116,9.506318985258334,0.0970822331005527
6.67852,9.516425828504772,0.0968616371202539
6.680908,9.527091750258654,0.0966225940826621
6.683288,9.5349641753332,0.0963978705318866
6.685683999999999,9.540834499661326,0.0961878293958296
6.688071999999999,9.54391132731012,0.0959920337492378
6.690452,9.549549334212772,0.0957622843940105
6.692856,9.558260377048478,0.0955087662238867
6.695244,9.568461663951403,0.0952292371518442
6.69762,9.58080482122761,0.0949291233347566
6.700019999999999,9.583137474771728,0.0947014146707089
6.7024040000000005,9.580954070143816,0.0944923654627216
6.704783999999999,9.573695528836431,0.0943209928324842
6.707188,9.556706023050683,0.0942105474541276
6.709575999999999,9.540228373944132,0.0941102763126125
6.711956,9.519746523344748,0.0940384619315155
6.714351999999999,9.496471176066027,0.0939800443562869
6.716739999999999,9.480412835840056,0.093863842300897
6.719119999999999,9.460629833374972,0.0937654395192792
6.721516,9.44326824053689,0.0936374685623102
6.723904,9.42697758288544,0.0934995518496854
6.726283999999999,9.407613889300938,0.0933850170452257
6.728687999999999,9.382895519783242,0.0933178437570916
6.731075999999999,9.36097064694488,0.0932366938696807
6.733455999999999,9.343189745226216,0.0931220540367269
6.73586,9.326991635373384,0.0930081694072985
6.738248,9.309023742199612,0.0929283721099776
6.740628,9.290776309772122,0.0928580418376068
6.743023999999999,9.279326575516802,0.0927469831828266
6.745411999999999,9.269878942007898,0.0926222161411007
6.747792,9.267368776298024,0.0924522728457155
6.750184,9.270445603946817,0.0922574161168558
6.752572,9.282601769767911,0.0920006476394539
6.754964,9.305420065627157,0.0916833400538059
6.757364,9.330520001486535,0.0913434090232484
6.759747999999999,9.360974613279108,0.0909585266933335
6.762128,9.391429225071676,0.0905734821535011
6.764532,9.414666829811502,0.0902425535035451
6.76692,9.43948722641716,0.0899130820804998
6.7693,9.465750645261796,0.0895919522552377
6.771696,9.494947330412629,0.0892551255925938
6.774083999999999,9.523352619630538,0.0889157635290779
6.776464,9.552828844035089,0.0885652516615506
6.778868,9.582305068439638,0.0882165087699286
6.781251999999999,9.606845925791578,0.0878994229309609
6.783632,9.630455617583738,0.0875862863210244
6.786036,9.65434484862962,0.0872636466961485
6.78842,9.676231978929083,0.0869544142852008
6.7908040000000005,9.692764433295352,0.0866919295940253
6.7932,9.710088283594542,0.0864320160235868
6.795588,9.726201429080232,0.086187060666113
6.797968,9.738170603446228,0.0859733629506187
6.800363999999999,9.745064641132752,0.0857943077641685
6.802751999999999,9.746883542139804,0.0856488769938623
6.805132,9.749633608706636,0.08550048360013
6.8075280000000005,9.751033200833106,0.0853703694109671
6.809916,9.752293023332715,0.0852447688977471
6.812295999999999,9.760490313631356,0.0850804492021485
6.814699999999999,9.770969243930132,0.0848958201210122
6.817087999999999,9.777863281616655,0.0847205843261675
6.819468,9.781684283370124,0.08456539769382
6.8218760000000005,9.79323414885554,0.0843743414289985
6.82426,9.80878821583379,0.0841608220072618
6.82664,9.8244820524389,0.0839436957695085
6.829035999999999,9.843109155350206,0.0837122366646314
6.831423999999999,9.866019999008069,0.0834504705465034
6.833804,9.887859907479289,0.0831967026259469
6.836204,9.908768650390728,0.0829455629244436
6.838587999999999,9.931307406996249,0.0826690746088241
6.840972,9.951983832482211,0.0824002751056905
6.843367999999999,9.974150502035398,0.0821117422438119
6.845755999999999,9.993523674909248,0.0818320342455977
6.848152,10.014898948529517,0.0815427372820385
6.850547999999999,10.035482826216864,0.0812520903831714
6.852935999999999,10.052993667971156,0.0809807946429356
6.855315999999999,10.066640077859477,0.0807262542689693
6.85772,10.085641163680986,0.08043519895539
6.860107999999999,10.10277991838294,0.0801522365416128
6.862488,10.112981205285866,0.0799035239389204
6.864888,10.128257628868266,0.0796272689905994
6.867276,10.147957562824075,0.0793181792021417
6.869656,10.162722129727277,0.0790348635368484
6.872051999999999,10.178697401443976,0.0787421998096285
6.874439999999999,10.190808241294702,0.078465085588596
6.87682,10.20184814595879,0.0781959014985142
6.879216,10.209815014689822,0.0779451655297687
6.881604,10.219132357861213,0.0776786292634708
6.883983999999999,10.232873211406016,0.0773799919271029
6.88638,10.240328223457851,0.0771186387918046
6.888768,10.246060674016991,0.0768580136394404
6.891148,10.248859858269936,0.0766103959133056
6.893551999999999,10.256873948829208,0.0763323411758203
6.89594,10.262094542709148,0.0760626655911578
6.898319999999999,10.267454906215946,0.07578839257825
6.900723999999999,10.273234578603327,0.0755007581512586
6.903111999999999,10.283018452483546,0.0751939573722532
6.905487999999999,10.286376715243929,0.0749294082220537
6.907892,10.289874747631172,0.0746613571604865
6.910279999999999,10.30417467968342,0.0743498631542975
6.91266,10.31540157580261,0.0740558979222395
6.91506,10.32048240005569,0.0737939025642585
6.917443999999999,10.322629958002572,0.0735426648419694
6.919823999999999,10.318771213710209,0.0733184940219506
6.922223999999999,10.317985505350896,0.0730783188602751
6.924608,10.318410501805086,0.0728276645699209
6.926987999999999,10.316693627886,0.0725898232005314
6.929391999999999,10.315907919526689,0.0723501743616697
6.931779999999999,10.315634067846574,0.0721224750163968
6.934164,10.323508388778992,0.0718559862733029
6.936564,10.334967602323657,0.0715855639161334
6.938952,10.346007506987744,0.0713278121046599
6.941332,10.354905541278551,0.0710838538179217
6.943736,10.363663805942505,0.0708440151245464
6.946124,10.37549510653951,0.0705903915710943
6.948503999999999,10.389188738256072,0.0703334248724537
6.9509,10.401020038853078,0.0700809487613567
6.953283999999999,10.413270648330665,0.0698150315874817
6.955664,10.426452423368028,0.0695486419600768
6.958059999999999,10.433907435419862,0.0693000465664128
6.960448,10.443364548218112,0.0690445105953071
6.962827999999999,10.458548424001895,0.0687742273949097
6.965231999999999,10.478947206092007,0.0684786028489637
6.967619999999999,10.504141585607874,0.0681701534291732
6.97,10.531198296243296,0.0678599308928428
6.972395999999999,10.55611313650544,0.0675623219579564
6.9747840000000005,10.582098911954224,0.0672583415171708
6.977163999999999,10.60580304740287,0.0669708962006069
6.97956,10.624711585425764,0.0666969597364536
6.981948,10.638405217142326,0.0664486922829702
6.984343999999999,10.651447222552836,0.0661950955176828
6.98674,10.666770867963471,0.0659264392455877
6.989128,10.680883808560615,0.065667670835003
6.9915080000000005,10.700351425090952,0.0653823283047116
6.993904,10.712322495314815,0.0651358626842602
6.996292,10.72494519184474,0.0648971536239505
6.998675999999999,10.740361385054,0.0646546622615368
7.001079999999999,10.76071294531587,0.0643977333903844
7.003464,10.773056102592074,0.0641680846589646
7.005847999999999,10.780835979868002,0.0639678900043793
7.008244,10.783540720464458,0.0637871503312939
7.010632,10.781589633262024,0.0636138413338312
7.013011999999999,10.77828807161923,0.0634545393845906
7.015408,10.774986509976436,0.0632958228736727
7.017796,10.769682847587225,0.0631440553558917
7.020176,10.765589890011515,0.0629828909191058
7.022571999999999,10.764709737995716,0.0628061587510892
7.024959999999999,10.76410912523364,0.0626212426569264
7.02734,10.7657901524717,0.0624217399995003
7.029735999999999,10.772686086016092,0.0622006306697669
7.0321240000000005,10.777579918814068,0.0619862499348245
7.03452,10.780471650865628,0.0617784809627932
7.036915999999999,10.786855727730824,0.0615480038009248
7.0393,10.783880927169992,0.0613553441638764
7.041683999999999,10.788402672915634,0.0611268062284832
7.04408,10.78840836048924,0.0608998369234065
7.046468,10.784409846570014,0.0606851984410824
7.048848,10.777478066344596,0.0604782729984858
7.051251999999999,10.778554689104842,0.0602466349252183
7.053643999999999,10.789409498171691,0.0599669919578847
7.056024,10.80347711279846,0.0596721543919412
7.058419999999999,10.819407058544789,0.0593753327545601
7.060804,10.83189188130572,0.0590745822895245
7.063187999999999,10.83972087626776,0.0587788346681605
7.065584,10.845408000856525,0.0584925762166503
7.067968,10.848953255072011,0.0582158700574981
7.070351999999999,10.852358739660636,0.0579444748869732
7.072748,10.8597684257421,0.0576627236115582
7.075131999999999,10.868621134062536,0.0573918925246105
7.077516,10.87253847533036,0.0571335603765493
7.07992,10.876455816598185,0.0568750632544752
7.082308,10.883166654545343,0.0566147962602348
7.084687999999999,10.885733521372812,0.0563695093083764
7.087084,10.894586229693246,0.0560999784682724
7.089472,10.903578707640545,0.0558282717562848
7.091852,10.915224912640314,0.0555580386342239
7.094252,10.929432296893944,0.0552673613560745
7.096635999999999,10.944431077080491,0.0549807620835792
7.099032,10.9583589220804,0.0546999475194045
7.101427999999999,10.964929990400698,0.0544473614725492
7.103815999999999,10.970150584280638,0.0542067495907059
7.106196,10.975231408533718,0.0539701686235856
7.1086,10.982686420585551,0.0537430763576607
7.110988,10.994937030063136,0.0535099475279367
7.113368,11.01040044510064,0.0532641890407341
7.115764,11.0277261912577,0.0530174147922665
7.118151999999999,11.04211867110856,0.0527765910261575
7.120532,11.053158575772647,0.0525531835386057
7.122927999999999,11.060473818197623,0.0523316434984785
7.125315999999999,11.069371852488432,0.0521166878567058
7.127695999999999,11.07920105233902,0.0519015226724993
7.130088,11.087167921070051,0.0516877898624718
7.132476,11.096577812040062,0.051484432352127
