Time,Force,Position
5.313023999999999,6.423112109753348,0.1623334013526068
5.315403999999999,6.447926818785399,0.1619838231665055
5.317803999999999,6.472276892966496,0.1615744698009538
5.320191999999999,6.490388347482864,0.1612506265658503
5.322571999999999,6.501702103827064,0.1610539760794859
5.324976,6.525540321328964,0.160630642344014
5.327363999999999,6.5485399210697,0.1602505228910861
5.329744,6.570328815996939,0.1599011240249173
5.332148,6.592210258722795,0.1595954615004722
5.334531999999999,6.630061285591743,0.1590264407165824
5.336912,6.674802558431475,0.1583674361132268
5.339312,6.71055704089752,0.1579188375090531
5.341695999999999,6.746451292990426,0.1574593277326196
5.34408,6.779319730978519,0.157010602943811
5.346475999999999,6.812375160421714,0.156517268856046
5.34886,6.837701726132964,0.1561706587409662
5.367975999999999,6.897468146550926,0.1560924882966278
5.370364,6.915390713754322,0.155960094382595
5.372743999999999,6.932474663196558,0.1558832099699436
5.37514,6.962502382677073,0.1555820772255803
5.377528,6.996162216598084,0.1551933635441172
5.379923999999999,7.019626451189779,0.1549133235442887
5.38232,7.02605016645174,0.1548992530552874
5.384703999999999,7.033824356154061,0.1548500554599258
5.387084,7.056544416641077,0.1545480632632772
5.389484,7.083128908994068,0.1541880334786206
5.391871999999999,7.118233661011923,0.1537018853703823
5.394252,7.151428860081979,0.1532866986947819
5.396647999999999,7.187649873256849,0.1528536867130139
5.399035999999999,7.23332231165636,0.1522894331660877
5.401415999999999,7.280857081175429,0.1517002244319607
5.403815999999999,7.333327217747112,0.1510336612869454
5.406203999999999,7.382584548758879,0.1504285167339279
5.408583999999999,7.435194454957422,0.1497542494018513
5.410988,7.498885800074687,0.1488854272378509
5.413371999999999,7.563415762953111,0.1479774877876661
5.415752,7.617191047994778,0.1472138051024787
5.418147999999999,7.658302102251887,0.1466537889175898
5.420536,7.691824062403906,0.146206709750987
5.422931999999999,7.715195749196981,0.1459341538892681
5.425324,7.740569536736473,0.1456367059516622
5.427712,7.7740914968884915,0.1452059944374201
5.430092,7.814690694466402,0.1446566086561085
5.432492,7.851657777603815,0.1441932748592401
5.43488,7.882059479994538,0.1438607604204472
5.43726,7.910878390519423,0.1435426811122108
5.439663999999999,7.934157529513883,0.1432601155147827
5.442052,7.956692494403667,0.1429458442344866
5.444431999999999,7.984349817801166,0.1425239695465443
5.446828,8.00618783041452,0.1421536522681972
5.449216,8.02886446078903,0.1417466783508103
5.451596,8.044511075565897,0.1414053333943247
5.453992,8.060856538477065,0.1410291075556696
5.456379999999999,8.080414806948149,0.1406070809417484
5.45876,8.099181679486314,0.1401960355444217
5.461155999999999,8.115574364225724,0.1397977767258552
5.463543999999999,8.131315422659078,0.1393923491622946
5.46594,8.151712308891321,0.1389318756458027
5.468335999999999,8.17704456217618,0.1384074532723462
5.470723999999999,8.209221735461448,0.1377673474438683
5.473103999999999,8.233577497216153,0.1371963615555234
5.4755,8.250204395238912,0.1367187294275061
5.477888,8.263246400649415,0.1362755468687294
5.480271999999999,8.280479599007856,0.1357421116962057
5.482668,8.298319097701981,0.1351512980006486
5.485056,8.306474853745986,0.1346395821092658
5.487435999999999,8.311789891282412,0.134190693186699
5.566279999999999,7.579811216642816,0.133956359657133
5.568676,7.58274448294901,0.1339188402024444
5.573447999999999,7.583350783284693,0.1338542492928455
5.575844,7.59028825108372,0.1337628546574477
5.578232,7.607608309667171,0.1335531353578994
5.580615999999999,7.628048626011921,0.1332644437695736
5.583012,7.649699647170167,0.1329545869154758
5.585395999999999,7.675587187246725,0.1326187411219704
5.587795999999999,7.70715426848057,0.1322562999265264
5.590192,7.741142759341415,0.1318492923949695
5.59258,7.776901033523198,0.1313954067603797
5.59496,7.814521638824537,0.1309257313687857
5.59736,7.856518532671049,0.130420015468199
5.599748,7.897863800211501,0.1299095883524734
5.602127999999999,7.934041383273865,0.1294389201737276
5.604524,7.969707109657031,0.1289538462009499
5.606912,8.005372836040197,0.1284659594465625
5.609295999999999,8.043832059102698,0.1279505899994973
5.611696,8.075493583993032,0.1275219836845838
5.61408,8.101987424405277,0.1271345341106619
5.616456,8.127550099257745,0.1267593544797681
5.618851999999999,8.15041182522949,0.126443912784482
5.621236,8.17834868788071,0.1260633035535867
5.623631999999999,8.204842528292957,0.1256856445332624
5.626028,8.22439890090617,0.1253935691000177
5.628411999999999,8.241533863892387,0.1251483494642639
5.630792,8.255735560572411,0.1249372405239116
5.633196,8.26048583202779,0.1248213018555494
5.635584,8.2591372534453,0.1247489147300696
5.637964,8.254715638929756,0.1247158977207281
5.642743999999999,8.242240295458169,0.1247133890168988
5.64514,8.235025184263288,0.1247059342055067
5.647544,8.229392864934244,0.1246937236751451
5.649932,8.227624977471173,0.1246407559800615
5.652312,8.229721521874078,0.1245471836432348
5.654712,8.235962037396675,0.1244010581386631
5.657095999999999,8.240340221799714,0.1242725123689815
5.65948,8.244718406202754,0.1241435876310542
5.661876,8.247746116165434,0.1240414380666459
5.664259999999999,8.249702890941476,0.1239542515463783
5.666644,8.2532896794116,0.1238276052616084
5.669039999999999,8.253803431948665,0.1237393079202435
5.671424,8.25282694041851,0.1236842634490838
5.673807999999999,8.255854650381192,0.1235832236650663
5.676204,8.260604921836567,0.1234722764696816
5.678592,8.266937985157782,0.1233569504316573
5.680971999999999,8.284445035196333,0.123141601792412
5.683368,8.309121870459395,0.1228733106257931
5.685756,8.335661036842014,0.1225884172848867
5.688136,8.358196001731795,0.122348973672432
5.69054,8.385386794420473,0.1220697708534893
5.692928,8.409085242295513,0.1218465043469956
5.695307999999999,8.43306322942427,0.1216120394013046
5.697704,8.45662190767245,0.1213978603050234
5.700092,8.478458024427932,0.1211952588084407
5.702472,8.501365076370051,0.1209827145175337
5.704867999999999,8.529067725737923,0.1207281607065107
5.707255999999999,8.555559670292297,0.1204912789888645
5.709652,8.589268621899421,0.1201725666713012
5.712047999999999,8.624048508693182,0.119841118778264
5.714435999999999,8.657477921046587,0.1195366078438634
5.71682,8.693188973400128,0.1192012282493998
5.719215999999999,8.731321435380666,0.118829119398931
5.721603999999999,8.769873206241787,0.1184440387429993
5.723984,8.80698195486393,0.118060385463444
5.726379999999999,8.844789551620373,0.1176502731381712
5.728767999999999,8.87742946389873,0.1172720203866306
5.731147999999999,8.903830756512356,0.1169352979877518
5.733544,8.928649257260146,0.1166020160342787
5.735932,8.95761172912763,0.1162232319951229
5.738311999999999,8.98219791244994,0.1158710771099738
5.740708,9.007482943906554,0.1154896921109102
5.743096,9.030114248310694,0.1151240826401328
5.745488,9.0506509041698,0.1147526471562337
5.747888,9.07304989114846,0.1143690001085153
5.750271999999999,9.087580244768317,0.1140588560941861
5.752656,9.0965236050295,0.1137924610035686
5.755051999999999,9.110170014917818,0.1134597385277426
5.757439999999999,9.117810122566883,0.1131868993740772
5.75982,9.125869539096533,0.1128986141627836
5.762215999999999,9.132206394133489,0.1126176847030354
5.764604,9.139474414730214,0.1123322696448725
5.766983999999999,9.145671500140304,0.1120603538080369
5.76938,9.150657880736896,0.1118072219366552
5.771768,9.15457332614685,0.1115665827048409
5.774148,9.156346901183523,0.1113499239322646
5.776551999999999,9.155978605846924,0.1111566077007228
5.778939999999999,9.158264037562796,0.1109494002705192
5.781319999999999,9.163762274838588,0.1107075198789812
5.783716,9.1678174898754,0.1104631109567435
5.786099999999999,9.173083409725717,0.1102018078685066
5.788496,9.179280495135808,0.1099344053910967
5.790892,9.19041294759851,0.109626205058531
5.793279999999999,9.20419912711369,0.1093061356498191
5.79566,9.215983205882452,0.1090047421069923
5.798064,9.23098009021113,0.1086673911888689
5.800452,9.24490603935317,0.1083406307832395
5.802831999999999,9.255479413308434,0.1080546966676592
5.805235999999999,9.266192556890555,0.1077630113327426
5.807623999999999,9.27448429084568,0.107505244877414
5.810003999999999,9.285988830360724,0.1072134439445322
5.8124,9.28841403170346,0.107002084983698
5.814788,9.288976901926638,0.1068030000795509
5.817167999999999,9.282462534723928,0.1066671388897908
5.819571999999999,9.271804196401526,0.1065716845560989
5.821956,9.263939354758458,0.106457734754439
5.824335999999999,9.258868009794725,0.1063253366095702
5.845839999999999,9.129130090340135,0.1062120019871187
5.848239999999999,9.116095668361108,0.1062044386331068
5.850624,9.105203116755357,0.1061744620694256
5.853004,9.09924593220222,0.1061050337235226
5.855404,9.09571015727608,0.1060031416223649
5.857792,9.092034612723078,0.1059066135117552
5.860172,9.094924448916766,0.1057388298316606
5.862575999999999,9.09567241473718,0.1055923324916393
5.864963999999999,9.104848092423843,0.1053624079379187
5.867343999999999,9.121380546790114,0.1050607169285045
5.869748,9.136050670036829,0.1047717330416939
5.872135999999999,9.148486375111649,0.1044788899031809
5.874516,9.165066051306162,0.1041486453545959
5.87692,9.17992316600798,0.1038238808419966
5.879308,9.194827502538043,0.1034667788156683
5.881687999999999,9.21294464462802,0.103076907537474
5.884084,9.232179943732875,0.1026467825351068
5.886472,9.251694782091455,0.1022071682877878
5.888852,9.270418224517115,0.1017681151296325
5.891247999999999,9.287930962129275,0.1013455524672647
5.893632,9.306933943808655,0.1009006727140821
5.896016,9.32407459436848,0.1004675023254727
5.898411999999999,9.343217345674722,0.1000219035405129
5.9008,9.355422629181934,0.0996296418927314
5.903179999999999,9.36576558156959,0.0992486918436941
5.905583999999999,9.377319238770744,0.0988546392526945
5.907968,9.389384752651097,0.0984721748434481
5.910352,9.407084481718362,0.0980294421123463
5.912747999999999,9.421431635598852,0.0976234112585039
5.915135999999999,9.430703652799869,0.0972585130178086
5.917515999999999,9.440394978881466,0.0968791717348907
5.919912,9.453391658321594,0.096496450344579
5.9223,9.465177632948228,0.0961308337970139
5.924679999999999,9.48310967944097,0.0957188798442119
5.927076,9.50648894966552,0.0952865150301225
5.929463999999999,9.52679518395702,0.094878139329602
5.931847999999999,9.54346930380802,0.094514102838528
5.934244,9.557722014032024,0.0941787646828022
5.936632,9.572766120188945,0.093844071682316
5.939027999999999,9.58995209671914,0.0934911972638923
5.941424,9.600712462129511,0.0931957335147493
5.943811999999999,9.614126554592351,0.0928927199153116
5.946192,9.62260528000258,0.0926225713757022
5.948587999999999,9.631875401345727,0.0923515077867914
5.950975999999999,9.639655278621657,0.092104142324701
5.953355999999999,9.643803041457089,0.0919002536372854
5.955752,9.65023244429266,0.0916741830569491
5.95814,9.653821128620647,0.0914918793566335
5.960519999999999,9.65862051776214,0.0912955120172116
5.962916,9.667935965075662,0.0910831979803223
5.965304,9.672548362762049,0.0909214673031202
5.967687999999999,9.676369364515516,0.0907598274212524
5.970084,9.677908726268846,0.0906213114625197
5.972472,9.675955743208544,0.090520202695497
5.974867999999999,9.66585458753571,0.0904760199175078
5.977264,9.659897402982573,0.0904008704355727
5.979652,9.660737916601605,0.090288014900556
5.982032,9.66479123578055,0.0901486413883865
5.984427999999999,9.668844554959495,0.0900094279801763
5.986815999999999,9.672478565257862,0.0898850628748449
5.989196,9.68104794260884,0.089731296780735
5.991596,9.68789475846712,0.0895812695969468
5.993983999999999,9.697535071004737,0.0894195893959179
5.996364,9.711598893915768,0.0892189371887351
5.998759999999999,9.728735752759851,0.0889970694442901
6.001147999999999,9.747362855671156,0.0887522009961169
6.003527999999999,9.760635282649266,0.0885512604024519
6.005924,9.77404747925424,0.0883456585072466
6.008312,9.788111302165271,0.0881463621902479
6.010695999999999,9.796867670971352,0.0879606918139818
6.013092,9.812980816457046,0.0877200137924038
6.015476,9.826952091569458,0.087496788498328
6.017875999999999,9.840131970748956,0.0872718952315037
6.020275999999999,9.850518353249113,0.087058261338341
6.02266,9.868121742802025,0.0867944639263778
6.025039999999999,9.881581161235236,0.0865605105692969
6.02744,9.887451485563364,0.086361953706529
6.029828,9.893461579518355,0.0861595036273732
6.032207999999999,9.90147377421976,0.0859458463616108
6.034604,9.905901076308917,0.0857416859484062
6.036996,9.907674651345593,0.0855440392502846
6.039375999999999,9.91051916156891,0.0853386298285807
6.041775999999999,9.914434606978864,0.085125896376338
6.044164,9.913135146082489,0.0849491853917758
6.046543999999999,9.91197545481297,0.0847682597661626
6.04894,9.911886698730092,0.0845796292179189
6.051328,9.914079582647352,0.0843700710106149
6.053711999999999,9.919764811378244,0.0841283762762141
6.056108,9.928011219362997,0.0838586418668461
6.058496,9.94091345514664,0.0835727544244588
6.060876,9.95209312943759,0.0832908329930394
6.063276,9.965554443728674,0.0829894022920253
6.065659999999999,9.98530159951273,0.0826479177631732
6.068043999999999,10.005188524923645,0.0823007997643849
6.07044,10.020931479214866,0.0819811325455145
6.072828,10.04188933981242,0.0816290740838518
6.075208,10.06657186264909,0.0812644971714827
6.077608,10.08897274548562,0.0809203445679286
6.079996,10.108440362015957,0.080590875092841
6.082376,10.132843345598904,0.0802378398926827
6.084776,10.159108660301408,0.079879786646121
6.087159999999999,10.17908813351094,0.0795609983007809
6.089544,10.193201074108083,0.0792688697458308
6.091939999999999,10.210247281011425,0.0789626854577449
6.094332,10.226362322354982,0.0786604873731813
6.096712,10.24112688925818,0.0783755532859454
6.099107999999999,10.256962391348022,0.07808430851421
6.101495999999999,10.267443217504669,0.0778306268912156
6.10388,10.274711238101398,0.0776000917805501
6.106275999999999,10.279977157951713,0.077380240917411
6.108663999999999,10.282681898548168,0.0771881602785872
6.111048,10.284315703957985,0.0770036117809408
6.113443999999999,10.279803437501691,0.0768530263560232
6.115831999999999,10.280226538098011,0.0766807901945729
6.118212,10.283071048321329,0.0764860868170722
6.120612,10.28363391854451,0.0763104647607611
6.122999999999999,10.28447632802141,0.0761266741854265
6.125396,10.288531543058223,0.0759228288794301
6.127799999999999,10.294868398095176,0.0757014864004149
6.130184,10.297061282012438,0.0755030235442574
6.132564,10.299393935556555,0.075300893638852
6.134964,10.307872660966789,0.0750665186451105
6.137352,10.321286753429629,0.0748111258451096
6.139728,10.337773881825523,0.0745413930971708
6.142132,10.352119139848144,0.0742848060141689
6.14452,10.368885807497762,0.074007563315656
6.146899999999999,10.38323106552038,0.0737524323960334
6.149303999999999,10.399578424289418,0.0734881870856734
6.151688,10.413923682312038,0.0732327615009266
6.154067999999999,10.429479645148156,0.0729673641620786
6.156464,10.44745701761127,0.0726808299165761
6.158847999999999,10.464363454887748,0.0724010485543106
6.161228,10.483132223283782,0.0721166841948698
6.163632,10.494823754253929,0.0718649699309161
6.166015999999999,10.504233645223936,0.0716309359043708
6.168396,10.511641435447526,0.0714056806691978
6.1708,10.514905254551424,0.0712016329087547
6.173183999999999,10.517237908095543,0.0710005758346823
6.175564,10.51915125275908,0.0708127850754679
6.177968,10.524277402982534,0.070606201995991
6.180356,10.527121913205852,0.0704165405087143
6.182736,10.533970624922004,0.0702119565157915
6.185139999999999,10.542030041451651,0.069998138193346
6.187524,10.548227126861748,0.0697893836013653
6.189904,10.56071005376481,0.0695496521264575
6.192307999999999,10.570119944734818,0.0693244668577345
6.194692,10.581020079772044,0.0690811084084237
6.197072,10.592991149995909,0.0688324640463368
6.199475999999999,10.609106191339468,0.0685650453190751
6.201863999999999,10.621077261563334,0.0683168682056816
6.204243999999999,10.635981598093394,0.0680613914231053
6.206648,10.651817100183234,0.0678043357278802
6.209031999999999,10.665650501526656,0.0675545019569607
6.211411999999999,10.687632075482606,0.0672714357729101
6.213808,10.70747177906528,0.0669989858231366
6.216196,10.727591021901675,0.0667182911265038
6.218575999999999,10.753856336604178,0.0664121192609606
6.220979999999999,10.777979780933403,0.0661181652182671
6.223367999999999,10.799169958956435,0.0658332163979577
6.225747999999999,10.821151532912385,0.065552390735177
6.228152,10.845274977241612,0.0652608279827849
6.230535999999999,10.860598622652256,0.064996351692367
6.232916,10.87270946250298,0.0647493283502633
6.235311999999999,10.883749367167068,0.0645085537043703
6.2377,10.889574365524824,0.0642921438915075
6.240079999999999,10.8932574935093,0.0640860081610075
6.242471999999999,10.897732017426698,0.0638829213880338
6.244859999999999,10.901275375784314,0.0636816473694906
6.24724,10.902257554888074,0.0635034502069406
6.249635999999999,10.911248136977498,0.0632992839868062
6.252023999999999,10.91409264720082,0.063119411569441
6.25442,10.919218797424271,0.062925764660823
6.256815999999999,10.929420084327202,0.0627144788521924
6.259203999999999,10.935477400110427,0.0625209708226337
6.261583999999999,10.947960327013494,0.0622971868242165
6.263988,10.961514189103196,0.0620686385896864
6.266371999999999,10.970924080073203,0.061857271239126
6.268751999999999,10.982196302162768,0.0616438634604896
6.271156,10.993748063506052,0.061422198597815
6.273539999999999,11.003437493729782,0.0612035607436933
6.275919999999999,11.01326669358037,0.0609818870666455
6.278328,11.028822656416487,0.0607498597757163
6.280711999999999,11.047451655185665,0.0605077020689133
6.283092,11.06393878358156,0.0602752595173398
6.285487999999999,11.081357077537236,0.0600419248524656
6.287872,11.099706537052688,0.0598066744945288
6.290251999999999,11.117264600635224,0.0595694485570627
6.29266,11.132680793844482,0.0593418543106853
6.295043999999999,11.147585130374544,0.0591037210174273
6.297424,11.156622934292212,0.0588804647722844
6.299819999999999,11.166731673396525,0.058652015074799
6.302208,11.174558772500696,0.0584377287429216
6.304587999999999,11.177450504552256,0.0582360601495794
6.306984,11.181552941417316,0.0580262850804717
6.309372,11.183513507909096,0.0578268635557733
6.311752,11.185194535147156,0.0576351913873972
6.314155999999999,11.187806727944997,0.0574426744845309
6.31654,11.188836128876996,0.0572443731717941
6.31892,11.193590192048111,0.0570431861534367
6.321316,11.200206586338789,0.0568411000817809
6.323703999999999,11.202818779136626,0.0566493703219231
6.3261,11.203568640814908,0.0564595635674285
6.328496,11.19831220025394,0.0562849413140557
6.330883999999999,11.197199730812663,0.0560964261316379
6.333264,11.198229131744668,0.0558995765736534
6.335659999999999,11.20526483491592,0.0556882239110808
6.338044,11.212952164393233,0.0554841502517939
6.340427999999999,11.2249232346171,0.0552631638509687
6.342824,11.238896405587385,0.0550377878232111
6.345212,11.24872560543797,0.0548249134150662
6.347591999999999,11.258694574915422,0.0546082545172228
6.349995999999999,11.266801213273316,0.0543925624732228
6.352383999999999,11.277980887564263,0.0541679849656881
6.354763999999999,11.28315425961596,0.0539572450695125
6.357159999999999,11.288979257973711,0.0537542194646221
6.359548,11.29387309077169,0.0535516842999809
6.361927999999999,11.299977628383166,0.053341701633293
6.364324,11.308735893047116,0.0531345821843922
6.366712,11.316562992151288,0.0529287302320538
6.369107999999999,11.321456824949264,0.0527281871848403
6.371504,11.331146255172992,0.0525220610453012
6.373887999999999,11.339624980583222,0.0523237022839474
6.376272,11.35397023860584,0.0521156659363309
6.378672,11.36924666218824,0.0519087350323461
6.381055999999999,11.38252098502422,0.0517069463132553
6.38344,11.388997609688031,0.0515150832784137
