Time,Force,Position
4.156764,6.159149788196073,0.1671536048831096
4.159108,6.188384215885799,0.1669177202288053
4.161452,6.215291677605018,0.1666462518593545
4.163796,6.238661468540225,0.16638453255984
4.166136,6.269899892834238,0.1659753814263587
4.168483999999999,6.3089597286588175,0.1654699771400729
4.170827999999999,6.3493700389237535,0.1649219600038017
4.173172,6.3930875984050894,0.1641908542091365
4.175516,6.43140515598286,0.1634938036565185
4.17786,6.465438972814079,0.1629135570763079
4.180208,6.498866489309612,0.1624345921621935
4.182548,6.54449170588088,0.1617896407586282
4.184895999999999,6.597566246930375,0.1609856699949924
4.187236,6.650780557606732,0.1601578949698011
4.189579999999999,6.700642293096311,0.1594327387251416
4.191923999999999,6.751387972317426,0.1587682877373082
4.194264,6.803436904150657,0.1581308332494188
4.196608,6.865962870424795,0.1572313955528711
4.198948,6.929002589236001,0.156213334952368
4.201296,6.976911341665276,0.1554174969114876
4.203636,7.016020295175967,0.1548113844530491
4.205976,7.057503436485413,0.1542179644428667
4.20832,7.114723844512469,0.1533685031202088
4.21066,7.170780769554273,0.1524962965773115
4.213004,7.21245090231882,0.1518634624188297
4.215344,7.250488920642873,0.1513355979851626
4.217692,7.297511833482745,0.1507464655716135
4.220044,7.349562661173844,0.1501156448706077
4.222379999999999,7.4088304959176945,0.1493549947359905
4.224724,7.462139250250538,0.1486481924869523
4.227072,7.50958147197099,0.1480408165147917
4.229407999999999,7.553159261825471,0.1475058289797824
4.231751999999999,7.608377569106111,0.1467773727165446
4.234096,7.665412881535934,0.1459528507347238
4.236444,7.715744939450078,0.1451483155363813
4.238779999999999,7.754391153967681,0.1444852909725034
4.24112,7.790895498112008,0.1438734243318681
4.243472,7.825722606734014,0.143358727580889
4.245807999999999,7.859850867221716,0.1428788899088744
4.248156,7.901615443642751,0.1422557274055122
4.2505,7.938352105212556,0.1416769489039505
4.25284,7.964658954169695,0.1412782821725172
4.255179999999999,7.982770408686067,0.1410490571522655
4.257524,8.00395489913549,0.1407722531322695
4.259875999999999,8.027747790667014,0.1403979183871696
4.262224,8.044697658055997,0.1400503414544903
4.264568,8.05145192611566,0.139791081137155
4.266908,8.055133158242272,0.1395789463084826
4.269252,8.050853209211455,0.1394433019679107
4.271588,8.04890212200902,0.1392280924339023
4.273936,8.048488500702046,0.1389385670283727
4.355976,7.611124367812654,0.1386512252749263
4.358324,7.616571591544465,0.1385932181925813
4.363,7.614431617029058,0.138522441072139
4.365348,7.60973046325979,0.1385076233928961
4.36768,7.6140614258345884,0.1383984922431954
4.370019999999999,7.622536359529079,0.1382253916792498
4.372364,7.634643407664068,0.1379797855770217
4.374715999999999,7.64996326135897,0.1376808132407496
4.377052,7.669891721024523,0.1373669935110301
4.379396,7.686188066249581,0.1371275954040279
4.381743999999999,7.699830684422164,0.1369129331551949
4.384087999999999,7.7070023655045405,0.1367342875965637
4.386432,7.715244981773554,0.1365390542579284
4.388776,7.728003656214601,0.1362970270826143
4.391112,7.746117006588839,0.1359681779183425
4.393447999999999,7.761111995059648,0.1356204920976824
4.395791999999999,7.776154205358702,0.1352371183445875
4.398136,7.793710373083368,0.1348367251621166
4.400475999999999,7.816014916405543,0.1344137296878856
4.402819999999999,7.838598998981437,0.1339798103044851
4.40516,7.850428403720573,0.1336537410501578
4.407503999999999,7.863049204392627,0.1333259580015176
4.409847999999999,7.883491416595244,0.1329332367973661
4.412196,7.905608968462318,0.1325651702464697
4.414543999999999,7.927354433277054,0.1321839865084462
4.416887999999999,7.947005249546755,0.1318025872636755
4.419232,7.958927202084507,0.1315128055725524
4.421576,7.971081472047738,0.1312474912723552
4.423924,7.9836550508915485,0.130965448167511
4.426264,8.001630527496799,0.1305697796882984
4.428611999999999,8.024448823356039,0.1300868979075867
4.430952,8.054297134812925,0.1295458027189904
4.433296,8.080373562202457,0.1290780693249586
4.435639999999999,8.103796262539515,0.1286333078357044
4.437983999999999,8.123773839891179,0.1282170861185707
4.503588,7.937019566585448,0.1280341023544542
4.505928,7.937299105839169,0.1280212845026622
4.508272,7.94330540807842,0.1279486608770829
4.510616,7.9517331199446675,0.1278327218246012
4.512951999999999,7.96365317662455,0.1276586174166049
4.515292,7.978738817036107,0.1274735935775155
4.517632,8.00127378192589,0.1272163396014855
4.519976,8.027440861256167,0.1268917713517677
4.522316,8.053096083907247,0.126558437461331
4.52466,8.0730245435728,0.126285691956667
4.527004,8.0977486006641,0.1259647907415065
4.529348,8.125545693688458,0.1256057577642444
4.531683999999999,8.153762095593398,0.125227939287128
4.534027999999999,8.179324770445865,0.1248717692469766
4.536364,8.21089374753758,0.1244463586657775
4.538708,8.24046062388288,0.1240456430295315
4.541052,8.270446809108762,0.1236284875689364
4.543392,8.301271612095803,0.123177570921417
4.545736,8.330793162470728,0.1227216187413763
4.548068,8.361804956912872,0.1222384650171193
4.550412,8.390954420235458,0.1217725868947362
4.552764,8.41880063094593,0.1213030426438014
4.555111999999999,8.438266351618395,0.1209088083030635
4.557452,8.456940676357943,0.1205182369282953
4.559796,8.47547523147063,0.1201371310353012
4.562136,8.49498817397134,0.119715670215717
4.56448,8.514780655725769,0.1192869453461825
4.566824,8.535504303039977,0.1188523931241701
4.569168,8.555017245540688,0.1184376364717345
4.571511999999999,8.579745094347729,0.1179607990766399
4.573855999999999,8.601679446475435,0.1175118436752091
4.576196,8.620960071550668,0.1170813359051821
4.578548,8.642522336626035,0.1166210944627779
4.580883999999999,8.666226472074682,0.1161357240530514
4.583232,8.684623153418377,0.1156858311471567
4.585584,8.707443345135486,0.1151808324499689
4.587928,8.728401205733038,0.1146915637456835
4.590272,8.746286030397535,0.1142370994961229
4.592616,8.766824582114507,0.1137705320266925
4.59496,8.783219162711788,0.1133514957522728
4.5973,8.809112390361953,0.1128323085756573
4.599644,8.832212121332786,0.1123345221030968
4.601992,8.86038698898309,0.1117857275356518
4.604328,8.886699525513837,0.1112503702687346
4.606672,8.909427169432332,0.1107373381143154
4.609019999999999,8.932946209283743,0.1102274535145977
4.611355999999999,8.949155694283789,0.1097644711016893
4.613704,8.964713552977775,0.1092988266904982
4.6160440000000005,8.979899324619428,0.108816588829181
4.618392,8.991220664395106,0.1083667465569647
4.620728,9.000679673051225,0.1079304831936652
4.6230720000000005,9.009347285774428,0.1074943436208248
4.625416,9.01172905700466,0.1071236308313327
4.627756,9.012108727488476,0.1067715590456351
4.630096,9.012720715397766,0.1064401364249267
4.632436,9.005975926627448,0.1061858759904621
4.634784,8.99909136823027,0.1059367211516081
4.637124,8.991415413900173,0.1056876007332412
4.639467999999999,8.980945962890742,0.1054575972448362
4.641816,8.971407677441087,0.1052211408648059
4.644159999999999,8.947435377885938,0.1051252198962359
4.6465,8.923974935009985,0.1050392962299442
4.648844,8.898093082507035,0.1049867503618156
4.651183999999999,8.877798223362754,0.1048971043211399
4.65352,8.856152889778112,0.1048299262115991
4.655863999999999,8.831434520260416,0.1047908805308332
4.658211999999999,8.813606396713508,0.1047256809593768
4.660551999999999,8.795079425032295,0.1046874683149576
4.662896,8.776645001149701,0.1046761802341234
4.665239999999999,8.761795469879361,0.1046461324905084
4.667579999999999,8.748808269728578,0.1046037947356009
4.669912,8.736984552563046,0.1045770376726797
4.672255999999999,8.730235972076992,0.1045041627263687
4.674595999999999,8.728143219389827,0.1044020678401634
4.676943999999999,8.729123502635717,0.1042717227516638
4.679288,8.73503915293422,0.1041008895716978
4.681628,8.74267736472542,0.1039241148722227
4.683971999999999,8.753620929875153,0.1037408453552948
4.686308,8.76042052390519,0.1035965816515238
4.688651999999999,8.76507824756195,0.1034747291752435
4.690992,8.775602503831102,0.1033053934293116
4.693336,8.789991191966225,0.1031078606708203
4.695675999999999,8.808104542340462,0.1028878759580696
4.69802,8.82114275603523,0.1027147029783414
4.70036,8.839116336782606,0.1025016549895267
4.7027,8.856530839022543,0.1023099589317826
4.70504,8.870360448650228,0.1021365787089731
4.707383999999999,8.884329827904773,0.1019578205937825
4.709724,8.903514113465649,0.1017297258133347
4.712068,8.923769334213164,0.1014931506971772
4.714411999999999,8.940811749400764,0.101289791324064
4.716752,8.959204639028725,0.1010650363593995
4.719096,8.976107284589464,0.1008681297150888
4.721444,8.985001527164535,0.1007374750883445
4.723787999999999,8.99203343862005,0.1006184829517753
4.726132,8.998925580448704,0.1005053718039508
4.728472,9.005026326344442,0.100392659350044
4.730815999999999,9.007402410001063,0.1003016226817766
4.7331520000000005,9.016715961456716,0.1001566090274128
4.735488,9.027240217725868,0.0999949494247513
4.737836,9.038835409181656,0.0998230172671265
4.7401800000000005,9.045635003211697,0.0996838398009257
4.742524,9.045776668696424,0.0995875250632203
4.744868,9.04792043492757,0.0994751362016115
4.747211999999999,9.04941257485266,0.0993579639597194
4.749556,9.055467994778022,0.0991881989065114
4.751887999999999,9.061523414703384,0.0990181369406762
4.754235999999999,9.067439065001889,0.0988534528672222
4.756584,9.069350513807557,0.098721185168986
4.758927999999999,9.066186825933752,0.0986308177480432
4.761272,9.066096173993005,0.0985143167757293
4.763615999999999,9.06907855798531,0.0983728067784802
4.765955999999999,9.07140931567156,0.098225741398984
4.768291999999999,9.078815210037284,0.0980368716979165
4.77064,9.088083435522565,0.0978386132646773
4.772995999999999,9.096560265074924,0.0976406718566726
4.775331999999999,9.106108029813925,0.0974331527901669
4.777676,9.120079304926334,0.0971801231991859
4.780023999999999,9.128835673732416,0.0969732190148331
4.782359999999999,9.14131670477761,0.09674752095923
4.784704,9.151795635076388,0.0965370923757923
4.787048,9.1650680620545,0.0963119122826432
4.789396,9.18728005757806,0.0960230521668184
4.791727999999999,9.20884042679556,0.0957297883141958
4.794072,9.229050321572702,0.0954579754395242
4.796427999999999,9.246326950043647,0.0952076277861578
4.798767999999999,9.269609880753844,0.0949161166033593
4.801116,9.29317235071776,0.0946147824663793
4.803459999999999,9.318876691054951,0.0942956313195867
4.805795999999999,9.347654067325202,0.0939524503905827
4.80814,9.37829377471501,0.0936029140838181
4.81048,9.403718575798482,0.093298281229588
4.812828,9.430214312068594,0.0929842623872087
4.815168,9.458572379458262,0.0926638615331863
4.817508,9.482786475728238,0.0923763201587855
4.819848,9.50793173755799,0.0920854609717232
4.822196,9.53465979125358,0.0917981195405118
4.824536,9.556824564948894,0.0915584002760741
4.826879999999999,9.582062374577262,0.0912954942626387
4.8292280000000005,9.603575521966524,0.0910511279838415
4.831572,9.626159604542416,0.0907976657366735
4.833916,9.648883456745171,0.0905404430064578
4.8362560000000006,9.667742877081956,0.0903078554135741
4.8386,9.687533462978516,0.0900722367975925
4.84094,9.709326149621493,0.089824637116231
4.843287999999999,9.728557657010612,0.0896089652577722
4.845628,9.74285379734712,0.0894252040808063
4.84798,9.7622250743631,0.0892092348412094
4.85032,9.778523315446026,0.0890153370956941
4.852663999999999,9.793750621342312,0.088830661725839
4.855008,9.80711559611904,0.0886550032480327
4.857348,9.822622441269043,0.0884623982473492
4.859696,9.83826905604591,0.0882655759457058
4.86204,9.851261943770302,0.0880765721585978
4.864388,9.86760740668147,0.0878574217524841
4.866731999999999,9.882881934406,0.0876472994449099
4.869076,9.894571569518275,0.0874481256225557
4.871416,9.911476110936883,0.0872121999384766
4.873752,9.928660191609216,0.0869679664621998
4.876099999999999,9.949848473774374,0.0867012464531982
4.878439999999999,9.974109791872593,0.0864163535051585
4.880792,9.998371109970812,0.0861327674203437
4.883136,10.019419622509114,0.0858737062937708
4.885475999999999,10.037255329487504,0.0856391174170433
4.88782,10.054020101279251,0.0854137849056684
4.890167999999999,10.074277217884635,0.0851548572272009
4.892507999999999,10.09453433449002,0.084896444089867
4.894855999999999,10.105712112923095,0.0846927918498877
4.897195999999999,10.118100596169675,0.0844766545176791
4.899543999999999,10.130768618669972,0.084251717416549
4.901892,10.142785014864211,0.0840218090856944
4.904228,10.152007914379116,0.0838020560630925
4.906571999999999,10.163093145013576,0.0835765729242733
4.908916,10.175249310834676,0.0833440932196363
4.911263999999999,10.183541044789802,0.0831291289290904
4.913603999999999,10.19118115243887,0.0829083951551555
4.915948,10.202965231207637,0.0826621954466982
4.918303999999999,10.212095582923924,0.0824223682000494
4.920648,10.220294769080432,0.0821863512200292
4.922988,10.226491854490526,0.0819623599960173
4.925331999999999,10.228684738407786,0.0817601505828553
4.9276800000000005,10.22836366489943,0.0815581319566323
4.930019999999999,10.227390965085014,0.0813493711329625
4.932359999999999,10.228699905270735,0.0811208857434943
4.934699999999999,10.228565823217483,0.0808852328859706
4.937047999999999,10.22978221560459,0.0806342755093617
4.939392,10.230346981685642,0.080377398156754
4.941732,10.237197589259662,0.0800806097349518
4.944075999999999,10.24404819683368,0.0797842414916437
4.946427999999999,10.25103857403456,0.0794839494100594
4.948772,10.254816145675523,0.0792049502837036
4.951115999999999,10.259664652503126,0.0789181579596554
4.953467999999999,10.262790597838032,0.0786335309056392
4.955812,10.26270373761302,0.0783704768596811
4.958152,10.269694114813902,0.0780711449359949
4.960495999999999,10.280828463134474,0.0777490960291993
4.962835999999999,10.28516511328288,0.0774548864651602
4.965183999999999,10.289781302685004,0.0771525438708182
4.967523999999999,10.29495657059457,0.0768334214188334
4.969868,10.2973383418248,0.0765220719583054
4.972208,10.300930817868531,0.0761995287264085
4.974551999999999,10.309179121711152,0.0758652375842414
4.9769000000000005,10.325715367793164,0.0754868776486077
4.979248,10.341460217942256,0.0751071063235978
4.981596,10.359067399210904,0.074723461154298
4.983943999999999,10.3711801349195,0.0743778300738291
4.986284,10.384224036187872,0.0740302852439399
4.988628,10.394986297456107,0.0737015532443371
4.990976,10.405888328351203,0.0733691756155121
4.993304,10.41758175517922,0.0730397417204314
4.995647999999999,10.434629857940426,0.0726782656725306
4.997987999999999,10.454750996634688,0.0723030371020781
5.00034,10.476874236075368,0.0719212163032422
5.002675999999999,10.502350050702823,0.07151658868769
5.00502,10.52102816715811,0.0711369422386886
5.007372,10.533420442120423,0.0707914479114227
5.009708,10.548466444135215,0.0704428276196499
5.01206,10.562813598015705,0.0701159354741442
5.0144,10.576322134135031,0.0698149722602154
5.016748,10.58955113100064,0.0695216109778496
5.0190920000000006,10.604642458985804,0.0692256531114303
5.021431999999999,10.615869355104996,0.0689427913621804
5.02378,10.6175976041713,0.068710956835336
5.026123999999999,10.623981681036495,0.0684708705644621
5.028468,10.625290621222218,0.0682519347052251
5.030808,10.633164942154634,0.0679935411828185
5.033156,10.638757623086912,0.0677509592562068
5.035492,10.645700778459547,0.0674948579665243
5.037836,10.652643933832186,0.0672392421879147
5.040187999999999,10.656793592525489,0.0669888663214328
5.042536,10.655448805658736,0.0667716092285042
5.044876,10.653824479538264,0.0665634551820532
5.047219999999999,10.648707808604156,0.0663808032579783
5.04956,10.64238043285655,0.0662080438047682
5.051904,10.639358410467477,0.0660409026998262
5.054252,10.64341362550429,0.065846923725054
5.056592,10.649331171660664,0.0656500408572162
5.058944,10.654317552257258,0.0654546030801584
5.061283999999999,10.661725342480846,0.0652406317368681
5.063628,10.676210370130326,0.0650011811707084
5.065968,10.687622361846753,0.0647748397120341
5.068311999999999,10.697032252816758,0.0645549141427504
5.07066,10.713519381212656,0.064308953322518
5.073,10.725071142555942,0.0640792645872594
5.075355999999999,10.746633407631313,0.0638168433902748
5.077696,10.76190983121371,0.0635833840613363
5.08004,10.78333232666222,0.0633271275193859
5.082383999999999,10.801681786177674,0.0630833062980856
5.084719999999999,10.818820540879628,0.0628490314129649
5.087064,10.839963497074418,0.0626026326080371
5.089411999999999,10.86552996364262,0.0623316172376496
5.091747999999999,10.88644060241193,0.0620671612732597
5.094092,10.907118923755766,0.061783919244007
5.096439999999999,10.929799345846014,0.0614957076081526
5.098775999999999,10.95196791125707,0.0611977105501743
5.101115999999999,10.966267843309314,0.0609213142941513
5.10346,10.979776379428644,0.060642788486608
5.105808,10.995846094801829,0.0603431425095171
5.108143999999999,11.00763206942846,0.0600639186817225
5.110488,11.0135515114427,0.0598001920945672
5.112836,11.017608622337384,0.059537787205183
5.115171999999999,11.027532265844462,0.0592619480485385
5.117512,11.036384974164898,0.0589926333017762
5.119856,11.044306516925555,0.0587238233535896
5.122204,11.04328849114077,0.0584798657077794
5.12454,11.045063962035316,0.0582326780205401
5.12688,11.040693361063752,0.0580068083042345
5.129228,11.037905551958024,0.0577865629124975
5.131568,11.03898217471827,0.0575595277733507
5.13392,11.03656645266488,0.0573544820839514
5.136263999999999,11.033731421730913,0.0571613369844091
5.138603999999999,11.034621053036055,0.0569647893495184
5.140936,11.035743001766672,0.056786193561227
5.143276,11.032720979377602,0.0566222231265559
5.145628,11.02820871292131,0.0564741595461405
5.1479680000000005,11.02714156945041,0.0563302648463059
5.150307999999999,11.023001390046456,0.0561959449311907
5.152652,11.017091427321558,0.0560853966809655
5.154995999999999,11.015185666089495,0.0559643673356396
5.157335999999999,11.01006709929752,0.0558564534345516
5.15968,11.008533425117797,0.0557494103606261
5.162023999999999,11.002716010191516,0.0556605884711065
5.164363999999999,10.990892293025988,0.0555870985129
5.166708,10.982001842166657,0.0555076049608141
5.169051999999999,10.975625348732938,0.05543359828543
5.171391999999999,10.970180020858995,0.0553589625565791
5.1737280000000005,10.966597024104614,0.0552829221930426
5.176072,10.96208286179045,0.0552074402978955
5.178416,10.954355893916372,0.0551454263828865
5.180752,10.946768695669151,0.055079470440205
5.183092,10.93503752630224,0.0550273314756943
5.185435999999999,10.92223542174869,0.0549794755028377
5.187771999999999,10.912646122755058,0.054918338868527
5.190108,10.903848219694344,0.0548602802223779
5.192451999999999,10.896400791073988,0.0547900535214319
5.194796,10.888441505774432,0.0547088018756856
5.197136,10.884346652340854,0.0546213134844348
5.199479999999999,10.879879711854931,0.0545189625227483
5.201824,10.870197865062682,0.0544345340645131
5.2041640000000005,10.865591154949902,0.0543356670201938
5.206503999999999,10.86233491927748,0.0542250469467952
5.208843999999999,10.86042915804542,0.0541023679617915
5.211183999999999,10.862667367933051,0.0539658120067252
5.213531999999999,10.865976513007324,0.0538254976783775
5.215871999999999,10.870915671775675,0.0536659498424745
5.218216,10.875063434611103,0.0535033626881333
5.220552,10.877628405580705,0.0533338770835614
5.222887999999999,10.878610584684465,0.053157132063424
5.225228,10.877358345616328,0.0529659658504587
5.227572,10.877456580988552,0.0527628979405996
5.229911999999999,10.883049261920831,0.0525349845096463
5.232256,10.888641942853107,0.0523072667507036
5.234596,10.89144112710605,0.0520810626903922
5.236939999999999,10.894659620239574,0.0518431624844264
5.239276,10.896807178186458,0.0516093894367822
5.241624,10.900817067252898,0.0513752481844261
5.243967999999999,10.9049667259462,0.0511379393860623
5.246307999999999,10.907905679826005,0.0509081354798378
