Time,Force,Position
7.580236,2.8948796298670225,0.179677910393681
7.582619999999999,3.0860989478007923,0.1767506152802478
7.585016,3.2633999000239995,0.1744854364918325
7.587404,3.4308339098577214,0.1721482404296984
7.58978,3.587097724689843,0.17006095557544
7.592175999999999,3.724043171907834,0.1686771844001316
7.594563999999999,3.8497239804677377,0.1674762379274663
7.59696,3.9695401522731206,0.166261614089564
7.599355999999999,4.085680779525503,0.1648538703916627
7.601743999999999,4.197122148866487,0.1632877957053368
7.604124,4.293621439138516,0.1619572078708751
7.606528,4.376993759632899,0.1608789233899711
7.608911999999999,4.450963772588751,0.1598289734896953
7.611292,4.508361692781567,0.1590095977499288
7.613687999999999,4.556963605771536,0.1581129244131133
7.616075999999999,4.587829943013211,0.1574619060463958
7.630408,4.602728591969663,0.1570766056134269
7.632791999999999,4.609199529059869,0.156987098568708
7.635188,4.6214897769342205,0.1568080127091329
7.637576,4.634291881487771,0.1566472516262648
7.639955999999999,4.649747713093796,0.1564327005323203
7.699704,4.651659161899464,0.1561554665568939
7.702091999999999,4.662785926788561,0.1559722054796526
7.704472,4.680989929103547,0.1556079358604622
7.706876,4.69588857806,0.1552977326889739
7.709264,4.710554909590977,0.1549515926774089
7.711643999999999,4.721124491830502,0.154650919707571
7.71404,4.735698275562862,0.1542434552080294
7.716428,4.7600502456018265,0.1535478596317904
7.718808,4.789245034894787,0.1526825768680239
7.721203999999999,4.811642126015579,0.151992145045218
7.723588,4.839998297547379,0.1512026624699711
7.725967999999999,4.872451218370628,0.1503529430896127
7.728376,4.90955996699277,0.1494303176828913
7.730759999999999,4.945458010801413,0.1485689352388911
7.73314,4.976792774609781,0.1478307507758017
7.735544,5.005286819910573,0.147204591848785
7.737932,5.040299024129811,0.1464402814917647
7.740312,5.070283313497821,0.1457547524762016
7.742715999999999,5.097241788761018,0.1450929562704391
7.7451,5.116611169919129,0.1445989761342286
7.74748,5.132395658464987,0.1441760317646562
7.749883999999999,5.149111312570623,0.1437462054184574
7.752271999999999,5.16037974294445,0.1434225797142169
7.754651999999999,5.170297698877917,0.1431499597268979
7.757048,5.185243569662614,0.1428217334379577
7.759436,5.207591543097292,0.1424079224002831
7.761815999999999,5.231522308397808,0.1419843808848191
7.764219999999999,5.247584440339517,0.1417361758706524
7.766607999999999,5.262156328214006,0.1415501154038392
7.768983999999999,5.276960533513974,0.1413967404650861
7.771387999999999,5.291904508440801,0.1412351328467187
7.773775999999999,5.308618266688567,0.1410000260549661
7.776155999999999,5.316299908592272,0.1409072531680232
7.77856,5.321467593070362,0.1408427992087096
7.780947999999999,5.337297407586593,0.1405742728293999
7.783328,5.361554933969073,0.1401145378144514
7.785732,5.382367337366159,0.139701957821903
7.78812,5.4061130070694405,0.1392350538549393
7.790499999999999,5.430742620504257,0.1388036098754216
7.792896,5.459189443976805,0.1383475163421404
7.795284,5.488939520061467,0.1379015613600048
7.797664,5.513242372414321,0.1375444428485217
7.800059999999999,5.538616159953813,0.1371677623466345
7.802447999999999,5.562919012306666,0.1368142626506707
7.804832,5.58028439686049,0.1365991909174745
7.807227999999999,5.601421665481672,0.1362804092924895
7.809615999999999,5.6208835944384,0.135933759860003
7.811996,5.641556228208626,0.1355533887429451
7.814391999999999,5.663951423471549,0.1351587411328525
7.816779999999999,5.690350820227305,0.134689610870284
7.819159999999999,5.715167425117225,0.1342331538208066
7.821563999999999,5.735840058887451,0.1338641505816729
7.823951999999999,5.761168520456569,0.1334243426332714
7.826336,5.785658364264526,0.1330377864755766
7.828727999999999,5.808425646579787,0.1326808221340533
7.831115999999999,5.824395230722877,0.132443490539433
7.833495999999999,5.841575519679468,0.1321761060895155
7.835892,5.857964412703141,0.131916386857895
7.83828,5.877054254607531,0.1315784762492121
7.840659999999999,5.900335289459857,0.131119031777391
7.843063999999999,5.919799114274454,0.1306700185307223
7.845451999999999,5.939682247969632,0.1301933296735976
7.847831999999999,5.954350475358477,0.1298159907566109
7.850228,5.972371277934097,0.1293659981598031
7.852616,5.991090928644018,0.1288673326710863
7.854995999999999,6.0010107804353545,0.1285160308550211
7.857392,6.012745741518006,0.12819109331621
7.85978,6.024992559279853,0.1278808084651024
7.862175999999999,6.032863088496529,0.1276171422656017
7.864572,6.035426163608257,0.1274115270200005
7.86696,6.042924605772597,0.1271295099489734
7.86934,6.051633752750435,0.1268172967765957
7.871743999999999,6.058899877489297,0.1265059112934347
7.874132,6.065933684802681,0.126161510283747
7.876511999999999,6.069242829876953,0.1258677389315664
7.878908,6.071481039764586,0.1255933885386742
7.881296,6.071717148905802,0.125352315358553
7.883676,6.069019991740822,0.1251561743916996
7.888464,6.046910023305225,0.1250689347799597
7.890844,6.037740033192172,0.125044318873595
7.89324,6.030013065318095,0.1250211998062609
7.895632,6.027640773377209,0.1248956034428989
7.898011999999999,6.022195445503268,0.1248226900552837
7.900412,6.020846866920778,0.1247249438018882
7.9028,6.024293885764041,0.1245596518043571
7.905179999999999,6.026856960875767,0.1243598957679438
7.907576,6.030910280054712,0.1241163021318096
7.909963999999999,6.040550592592329,0.1238060487828399
7.912347999999999,6.051773696995783,0.1234875187356947
7.914744,6.056199103227066,0.1232675953356388
7.917132,6.064488941324322,0.1229969986461006
7.919515999999999,6.072079931287279,0.1227682470747158
7.921916,6.087120245728462,0.1224550690344445
7.9243,6.100670316102425,0.1221836208416392
7.92668,6.118084818342363,0.1218603338234294
7.929075999999999,6.137221882074995,0.1215236779972909
7.93146,6.157010572113686,0.1211899855598955
7.933856,6.179732528458573,0.1208150083078977
7.936251999999999,6.205946829617095,0.1203590767501798
7.938636,6.228716007790224,0.1199372775907371
7.941019999999999,6.249762624470657,0.1195296594690213
7.943423999999999,6.265594334844758,0.1192100923944295
7.945811999999999,6.284359311525055,0.1188510573070057
7.976855999999999,6.185582172968628,0.1186153317511838
7.979256,6.171012180952008,0.1185877591922112
7.981644,6.158304520054944,0.1185382207337086
7.984023999999999,6.147319420650579,0.1184759137006972
7.986424,6.135915012365631,0.1184373211409886
7.988812,6.124370834453822,0.1184069025263154
7.991191999999999,6.116970627661707,0.1183114786698482
7.993588,6.108639255309814,0.1182259038259238
7.995976,6.105103480383673,0.118081117860732
7.998356,6.107853546950503,0.1178340291668963
8.00076,6.112605714263751,0.1175572427183793
8.003143999999999,6.11628694639036,0.11729878471736
8.005524000000001,6.121458422584189,0.1169960907963128
8.007919999999999,6.127700833964654,0.1166758963419923
8.010307999999998,6.136736742024455,0.1163262675748376
8.012704,6.1490780034427885,0.1159593774809228
8.015096,6.165143927100235,0.1155521034026976
8.017484,6.1880075489298525,0.1150573796895547
8.019863999999998,6.210591631505746,0.1145835586364967
8.02226,6.232244548521863,0.114117434495541
8.024643999999999,6.256830731844176,0.1136183743164349
8.02704,6.272989203300241,0.1132585955833809
8.029443999999998,6.283281142143914,0.1129740857124532
8.031831999999998,6.296785886547504,0.1126409791275171
8.034212,6.307636903898618,0.1123269535092635
8.036615999999999,6.319046999757174,0.1119805911915176
8.038999999999998,6.327523829309533,0.1116710355177004
8.04138,6.332927622928839,0.1114060401637492
8.043783999999999,6.342335618040979,0.1110898521552089
8.046167999999998,6.347459872406564,0.1108435610399132
8.048548,6.353934601212507,0.1105651272214447
8.050944000000001,6.359478164458673,0.110294825059543
8.053328,6.365813123637756,0.1100232643082888
8.055708,6.37200831318998,0.1097609766632083
8.058104,6.371405804570035,0.109578303448801
8.060492,6.372014000763587,0.109371605302085
8.062871999999999,6.369037304344886,0.109193742059307
8.065276,6.359914536060076,0.1091018192826642
8.067664,6.346927335909291,0.1090539214771434
8.072447999999998,6.319742230794225,0.1089819254765989
8.074832,6.306475491389721,0.1089496795492673
8.079615999999998,6.278591538140352,0.1089178107490185
8.084388,6.255548508287109,0.1089154971211278
8.086787999999999,6.246331296345812,0.1089145419848736
8.089175999999998,6.24125805552421,0.1088530717133229
8.091556,6.232320382836633,0.1088350058999556
8.093951999999998,6.2292492427614485,0.1087477894466009
8.096336,6.2209631963799294,0.1087361499569387
8.101112,6.208068544027763,0.1087233084523421
8.1035,6.202948081377915,0.1087070228376602
8.105879999999999,6.204206008019658,0.1086365122694754
8.108284000000001,6.202251129101484,0.1086161725093042
8.110672000000001,6.204812308355342,0.1085596264671407
8.113052,6.211237919475174,0.1084595467143163
8.115455999999998,6.224973085446371,0.1082974621004874
8.117840000000001,6.243224309589599,0.1081026401156109
8.120224,6.265619504852523,0.1078503594953818
8.122620000000001,6.2910877360485005,0.1075597239566186
8.125008000000001,6.319489233550676,0.1072394862547546
8.127388,6.352965867732321,0.1068534841288885
8.129784,6.382857609301713,0.1064960017520429
8.132168,6.414099825311464,0.1061105760631671
8.134547999999999,6.447483911694492,0.1056963135705567
8.136952,6.477515422890745,0.1053387878051629
8.13934,6.50647599890036,0.1049973646374901
8.14172,6.530640977484222,0.1047075211103575
8.144123999999998,6.562674589426892,0.1043310836424898
8.146508,6.596989841369698,0.1039185201533482
8.148888,6.630653467006447,0.1035000719171338
8.151284,6.661244056710141,0.103122277070412
8.153672,6.693464660107916,0.1027056357836056
8.156051999999999,6.729037838692464,0.1022381666911652
8.158448,6.7619572902245375,0.1017910788016966
8.160836,6.795296050637192,0.1013255498176822
8.163232,6.824258522504675,0.1008888979226949
8.165627999999998,6.846842605080569,0.1005004392646288
8.168015999999998,6.8655622557904925,0.1001492380432193
8.1704,6.8805572442613006,0.0998292601143215
8.172795999999998,6.893550131985692,0.0995335085650986
8.175180000000001,6.904540918963666,0.0992604206475067
8.177564,6.915671475568503,0.0989798502778807
8.179956,6.927733197733118,0.0986955383366894
8.182344,6.943007725457647,0.0983753294938364
8.184724,6.9605638931823135,0.0980214123637218
8.18712,6.980122161653395,0.0976480827059752
8.189504,7.001682530870895,0.0972554686606197
8.1919,7.021520338595698,0.0968747483475585
8.194295999999998,7.037493714454528,0.0965272870523163
8.196684000000001,7.054677795126857,0.0961614673742605
8.199064,7.072001645426045,0.0957878492048766
8.20146,7.084110589418902,0.0954744137615749
8.203848,7.092075562292066,0.0952068331486124
8.206228,7.098829830351729,0.0949588230037708
8.208628000000001,7.104233623971034,0.0947378988939679
8.211012,7.111499748709897,0.0945057107332751
8.213396,7.120348665314594,0.0942740610076158
8.215792,7.132130848225487,0.0940172368767744
8.218176,7.144844196696159,0.0937544813227371
8.220572,7.155695214047274,0.0935043084578636
8.222971999999999,7.16589460509233,0.0932470310006607
8.225355999999998,7.179818658376502,0.0929670903926512
8.22774,7.188807344608059,0.0927312365242341
8.230144,7.188576923040451,0.0925893438967438
8.232527999999999,7.189137897405761,0.0924488166194958
8.234908,7.19035049807713,0.0923162365782836
8.237307999999999,7.191563098748499,0.092184164704059
8.239691999999998,7.190633829046591,0.0920768751524196
8.242076,7.192637825650876,0.0919461010435545
8.24448,7.193291347814802,0.0918406652136767
8.246868,7.194876035538506,0.0917295563470244
8.249247999999998,7.200604694381906,0.0915768943447023
8.251652,7.210477324345,0.0913829317390777
8.25404,7.222491824681369,0.0911652516515426
8.256419999999999,7.235856799458099,0.090923559202877
8.258816,7.247359443115271,0.0906941693428162
8.261204,7.2602125612128035,0.0904410053420621
8.263583999999998,7.273996844870113,0.0901844286365035
8.265984,7.286430654087065,0.0899520191472825
8.268367999999999,7.298864463304016,0.0897191433144117
8.270748000000001,7.31367246031972,0.0894904193796277
8.273143999999998,7.327409522148787,0.0892756698993376
8.275531999999998,7.34342822397799,0.0890313172340677
8.277916000000001,7.366384393606222,0.0887313890588191
8.280311999999999,7.385895440249062,0.0884404407647102
8.282699999999998,7.399819493533233,0.0881795305448246
8.28508,7.412812381257625,0.0879248467782264
8.287475999999998,7.424874103422239,0.0876751852225042
8.289863999999998,7.438146530400351,0.087410016585463
8.292244,7.449836165512627,0.0871417820933873
8.294640000000001,7.462736505438402,0.0868570165179868
8.297028000000001,7.474705679804398,0.0865794479658036
8.299412,7.483741587864201,0.0863237924684005
8.301808000000001,7.492917265550862,0.0860633138031133
8.304196000000001,7.502232712864383,0.0857983087553805
8.306591999999998,7.510756764244986,0.0855320414915521
8.308988,7.519280815625589,0.0852672531858606
8.311376,7.52408020476708,0.0850211032470724
8.313755999999998,7.531580542789289,0.0847296402912578
8.316156,7.542293686371413,0.0844075165681672
8.318544,7.549841246221865,0.0840793647983704
8.320927999999999,7.554083452713783,0.0837511422986909
8.323332,7.559256824765481,0.083419595503603
8.325716,7.558982973085368,0.0831081790662055
8.3281,7.563364949204146,0.0827763962476468
8.3305,7.573892997189036,0.0823947911912417
8.332884,7.582558714054369,0.0820211507528914
8.335263999999999,7.593506070919839,0.0816218240279001
8.33766,7.601380391852254,0.0812483033875692
8.340048,7.612187979090863,0.0808567304191504
8.342427999999998,7.6222041703965555,0.0804648274876573
8.344824,7.63035803058269,0.0800817386813955
8.347211999999999,7.637720494835908,0.0796957618229882
8.349592000000001,7.641078757596292,0.0793369375035066
8.351996,7.643226315543178,0.0789948960136057
8.354384,7.648167370169396,0.0786423302497
8.356763999999998,7.650035388862561,0.0783129463170767
8.359168,7.653765738675283,0.0779754919724586
8.361552,7.654143513301227,0.0776730875261548
8.363935999999999,7.651588021620976,0.0773883701987001
8.366332,7.65247765292612,0.0771011651266784
8.368716,7.650945874604266,0.0768430836500096
8.371095999999998,7.649553865909272,0.0765799627096822
8.3735,7.651886519453391,0.0763022803196681
8.375888,7.649423575571757,0.0760486341611434
8.378267999999998,7.646960631690125,0.0757963950441457
8.380664,7.647291184487827,0.0755338554378749
8.383052,7.645479866912251,0.0752899223387155
8.385431999999998,7.644599714896456,0.0750425213951589
8.387836,7.642788397320882,0.0747988947956895
8.390224,7.640697540491587,0.0745670376484669
8.392603999999999,7.640980871461045,0.0743433501973439
8.395008,7.646711426162313,0.0741074337025572
8.397392,7.657377347916194,0.0738445177441925
8.399771999999999,7.669905600789631,0.0735766962763413
8.402172,7.680152213662931,0.073333221672521
8.404556,7.692261157655787,0.0730832705324532
8.406935999999998,7.703019627208286,0.0728533135908771
8.40934,7.716431823813258,0.0726198156667105
8.411728,7.730076337843706,0.0724117929228339
8.414107999999999,7.742510147060658,0.0722193647746959
8.416504,7.761741654449778,0.0719945944365395
8.418892,7.778272212958179,0.0718104059675092
8.421271999999998,7.793312527399362,0.0716525560284211
8.423668,7.809935633706381,0.0715000262815385
8.426055999999999,7.823066395199765,0.0713854127913717
8.428435999999998,7.835126221506509,0.0712798988423911
8.430831999999999,7.847837674119311,0.0711829260874001
8.433219999999999,7.86120075303817,0.0710948329287283
8.435616,7.876146623822867,0.0710131818043755
8.438008,7.892675286473398,0.0709377795560089
8.440396,7.905479286884819,0.0708735025142808
8.442775999999999,7.913347920243625,0.0708347351162366
8.44518,7.918934913602294,0.0708184796711438
8.447564,7.921588640654768,0.0708160075329693
8.449943999999999,7.923450971774326,0.0708106457704321
8.45234,7.9273154036403,0.0707944986187079
8.454728,7.939607547372521,0.0707195188428123
8.457107999999998,7.956323201478157,0.0706084402866433
8.459512,7.97587957409137,0.0704550674005429
8.461896,7.993992924465608,0.0702907918519609
8.464279999999999,8.014248145213124,0.0701138302978921
8.466671999999999,8.037204314841357,0.0699002393166317
8.469059999999999,8.061510958909947,0.0696686975641838
8.471456,8.0859573726054,0.0694319943704609
8.473852,8.112825195927849,0.0691695692043051
8.476236,8.142766055183353,0.068891553286949
8.478615999999999,8.173917619252357,0.0686014772318601
8.481020000000001,8.20749059294836,0.0682883763022512
8.483408,8.242414041084722,0.0679608463763444
8.485788,8.276034236608963,0.0676187214981165
8.488184,8.310865136946706,0.0672630562297273
8.490572,8.347977677284588,0.0668881863060568
8.492951999999999,8.387371857622606,0.0664952829708782
8.495348,8.429839073893678,0.0660874117429625
8.497736,8.474308390911169,0.065671141286543
8.500115999999998,8.518917477555519,0.0652536910983189
8.50252,8.552584894908007,0.0648878483083897
8.504908,8.580106240394384,0.0645574072868871
8.507287999999999,8.604275010693984,0.0642546596766192
8.509684,8.629095407299644,0.0639606374662337
8.512072,8.646047170546494,0.063697960706053
8.514451999999999,8.664581725659183,0.0634439871014176
8.516848,8.682464654465813,0.0631829022916264
8.519236,8.70276899289944,0.0629000049072931
8.521632,8.724144266519707,0.0626126831842435
8.524031999999998,8.742586273833776,0.0623369370620387
8.526416000000001,8.760376654841789,0.062054102088622
8.5288,8.774023064730109,0.0617934199110083
8.531195999999998,8.781383633125458,0.0615665314019833
8.533584000000001,8.789395827826864,0.0613486818959782
8.535964,8.800341288834465,0.0611223354623986
8.538367999999998,8.811286749842067,0.0608970815339052
8.540755999999998,8.81808823972997,0.0606921277934405
8.543136,8.818883427378628,0.060509611192552
8.545531999999998,8.81688511834795,0.0603310322947428
8.547919999999998,8.81009121189152,0.0601637408283145
8.5503,8.805159636554647,0.0599927922955755
8.552696000000001,8.799296895657994,0.0598226275816041
8.555084,8.79543625550776,0.0596449698050102
8.557464,8.792786320171022,0.0594565012105284
8.55986,8.791998715953843,0.0592647287947982
8.562248,8.786555283937773,0.0590794965688592
8.564627999999999,8.781623708600899,0.0589078432944848
8.567032000000001,8.771197687703971,0.0587712063063233
8.569420000000001,8.755556760500713,0.0586596467494776
8.5718,8.737913732551037,0.0585548859777427
8.574200000000001,8.71971162609392,0.0584692741949523
8.576584,8.702440685196581,0.0583822828387916
8.578968,8.689313715418939,0.0582758865357254
8.581364,8.675115810454654,0.0581754039229846
8.583752,8.660778135863513,0.0580798048350941
8.586132,8.644158821272233,0.0580006513489479
8.588528,8.631963017054368,0.0578928087914326
8.590916,8.626704680635529,0.0577630571807415
8.593312000000001,8.623168905709388,0.0576358218378851
8.595707999999998,8.624428728208999,0.0574986732137927
8.598095999999998,8.63169485294786,0.0573417493480868
8.600476,8.64082330880628,0.0571826908905476
8.602871999999998,8.64794966391828,0.0570305595594497
8.605263999999998,8.65493624940342,0.0568838818564933
8.607644,8.662062604515421,0.0567322581531175
8.610043999999998,8.669049190000564,0.0565849697464826
8.612427999999998,8.67445298361987,0.0564300381776958
8.614812,8.685071683545509,0.0562514686326579
8.617207999999998,8.697972023471282,0.0560561403272877
8.619595999999998,8.713945399330111,0.0558488218622167
8.62198,8.727265048136468,0.0556385750114117
8.624375999999998,8.739001905076986,0.0554202163537361
8.62676,8.751018301271225,0.0551932871177619
8.62914,8.75931003522635,0.0549686577994623
8.631540000000001,8.761875006195949,0.054753210990277
8.633924,8.764999055672986,0.0545180516670476
8.636308,8.763979134030329,0.0543006473796574
8.638704,8.758163614961921,0.0540918297764988
8.641092,8.752767404774094,0.0538685363708676
8.643476,8.74322722346657,0.0536622469291637
8.645872,8.725958178427103,0.0534702280208997
8.64826,8.709108442268214,0.0532634652181167
