Time,Force,Position
7.371551999999999,3.1780647719028243,0.1713751836561654
7.373939999999999,3.384694595472245,0.1685251955594772
7.37632,3.5811307155702163,0.1660220832751683
7.378724,3.764254770293309,0.1635535028756456
7.381112,3.931040945536712,0.161540526519027
7.383492,4.078648522792846,0.1599578271503197
7.385895999999999,4.213036582472719,0.1586461551829574
7.388284,4.339372809054419,0.1572388236686331
7.44562,4.59429277677631,0.1571651450511831
7.448,4.60341744091899,0.157022732996558
7.450403999999999,4.61854840730092,0.1567096537923413
7.452792,4.634657761070871,0.1563143117044468
7.455171999999999,4.6415952288699,0.1561265693687928
7.457568,4.648765014094407,0.1559756044911292
7.459956,4.655096181557752,0.1558991321838636
7.462336,4.669388530178521,0.1556713419088791
7.464732,4.683121800291849,0.1554932568140771
7.467119999999999,4.700719502271151,0.1552132856689638
7.4695,4.720970931302928,0.1548757844867593
7.471904,4.740430964401786,0.1545537984970025
7.474288,4.75751680970189,0.1542743206618091
7.476672000000001,4.772647776083821,0.1539869063248173
7.479068,4.78531200686838,0.1536752318954445
7.481451999999999,4.798302998734902,0.1532746813650976
7.483832,4.809059572429532,0.1528938949237475
7.486236,4.82200523832568,0.1523961761472223
7.488624,4.831366011609576,0.1519694314182616
7.491004,4.842728885639888,0.1514936794557146
7.493411999999999,4.861541084148427,0.1508577523476643
7.495796,4.874207210790856,0.1503903890224337
7.498175999999999,4.887572185567584,0.1498747063040223
7.500572,4.89693295885148,0.1494567579652523
7.50296,4.907457215120631,0.1490473988273126
7.505343999999999,4.918680319524082,0.1485788027756351
7.50774,4.930602272061835,0.1480583548363056
7.510128,4.938195157882661,0.147566058666599
7.512508,4.93861825847898,0.1471963929623228
7.514911999999999,4.938482280567858,0.1468706033622317
7.572252000000001,4.821697610440897,0.1465827889817943
7.57464,4.826725525292126,0.1465158831918524
7.577024,4.829658791598321,0.1464497910563063
7.579419999999999,4.834733928277793,0.1463263199378274
7.581808,4.846559541301192,0.1461097873967393
7.584187999999999,4.86248190361604,0.145843692379829
7.586587999999999,4.88538895555816,0.1453570350057725
7.588976000000001,4.905502510820944,0.1449316930742254
7.591355999999999,4.921844182016374,0.1446414103153134
7.59376,4.949871696608341,0.1441507455442489
7.596147999999999,4.982322721573722,0.1435458274127815
7.598528,5.011468393180571,0.1429923220933406
7.600932,5.033956136242112,0.1425806477230545
7.603315999999999,5.059749232662184,0.1421339487633001
7.605696,5.094621667254563,0.1414733649797231
7.608091999999999,5.126747826995849,0.1408214138580761
7.610479999999999,5.155987942259182,0.140184992787316
7.612859999999999,5.183505496029821,0.1395731072738171
7.615264,5.217541208718908,0.1388510012759185
7.617652,5.252927395848352,0.1380899533536306
7.620032,5.293296171858652,0.1371844914204847
7.622427999999999,5.328869350443202,0.1363720396963817
7.624815999999999,5.367747882386283,0.135540097785573
7.627196,5.404996400635285,0.1347818736998272
7.629592000000001,5.443735162951506,0.1339809434591739
7.63198,5.483312543028889,0.1331311256739659
7.634376,5.518606182359717,0.132391900598466
7.636772000000001,5.555482613556381,0.1316473579905454
7.63916,5.596223476619019,0.1308392213413841
7.641539999999999,5.629282697777954,0.1301236520151647
7.643943999999999,5.654752824831801,0.1295348855721466
7.646331999999999,5.673005944832899,0.1290834289047716
7.648712,5.687487180766642,0.128734653813876
7.651116,5.702247955954104,0.128370700148737
7.653499999999999,5.716868961514706,0.1280223178522445
7.65588,5.730511579687287,0.1277415279068097
7.658275999999999,5.744758602337682,0.1275190839645686
7.660664000000001,5.764173309466168,0.1272468817157796
7.663043999999999,5.779723584728679,0.12704070756132
7.66544,5.796065255924107,0.1268349324513917
7.667828,5.807843647119263,0.1267376780574041
7.670208000000001,5.822415534993753,0.1266017630923297
7.672611999999999,5.833402530255988,0.1265096162415421
7.682164,5.857376725669007,0.1264328537544575
7.684543999999999,5.863568123505493,0.1264144475742961
7.68694,5.86803695984928,0.1264119474977135
7.689323999999999,5.8786046462309365,0.1263533182709773
7.69172,5.894479786717541,0.1262412411543519
7.694115999999999,5.923298697242427,0.1259254483172858
7.696503999999999,5.961756024447059,0.1254268818063618
7.698884,6.00021335165169,0.1249356618559933
7.701280000000001,6.039089987736903,0.1244299702028096
7.703668,6.078013845650359,0.1238790706058167
7.706047999999999,6.118195630205556,0.1232600656792595
7.708444,6.152418334349745,0.1226918779100594
7.710832,6.185849642561016,0.1221256207903148
7.713212,6.215416518906315,0.1216149848753354
7.715608,6.246054330438251,0.1210859508385442
7.717995999999999,6.275900746037268,0.1205614752893494
7.72038,6.305607392009427,0.1200457048864587
7.722776,6.3359656642876425,0.1195377411928895
7.725163999999999,6.370467907685553,0.1189624304283157
7.72756,6.405668999217766,0.1183468126226467
7.729956,6.437145428510863,0.117774516812596
7.732343999999999,6.463034864445292,0.1172688338199517
7.734728,6.488272674073663,0.1167605365119919
7.737124,6.505269763290888,0.1163409065209166
7.739511999999999,6.521243139149718,0.1158987568903927
7.741892,6.529767190530321,0.115544551457382
7.744287999999999,6.535357975604729,0.1152332336223186
7.746675999999999,6.536432702507105,0.1149628425781679
7.74906,6.530569961610453,0.114783875784292
7.751452,6.52507930776614,0.1146263322604036
7.75384,6.514885604294691,0.1145614775940117
7.756219999999999,6.5053435271293,0.1145022637156758
7.758616,6.497663781083466,0.1144235780812449
7.761004,6.491334509477989,0.1143117203177727
7.763399999999999,6.483282676379819,0.114211252983602
7.765796,6.477512483281783,0.1140683066414869
7.768184,6.470159498317912,0.1139285725700813
7.770564,6.459361390368647,0.1138111662679155
7.772959999999999,6.445769785740048,0.1137217415903598
7.775347999999999,6.43082770667109,0.1136646507933874
7.777728,6.419098433162048,0.1135556277237592
7.780123999999999,6.409883117078621,0.1134334986760304
7.799239999999999,6.324555917666064,0.1133597143080704
7.801636,6.316968719418847,0.1133158810590451
7.804024,6.311104082664326,0.1132604512478366
7.806404000000001,6.304448049976887,0.113206566817734
7.8088,6.296581312475949,0.1131778874172567
7.815968,6.275075748518169,0.113100704361395
7.818356,6.275961588107574,0.1130081371726577
7.820739999999999,6.279501154749452,0.1128956813009052
7.823136,6.285182591764609,0.1127491534797057
7.825524,6.291655424712683,0.1126026252427748
7.827907999999999,6.298407796914479,0.1124408190498471
7.830304,6.305439708369993,0.1122637612613004
7.832692,6.317966065385561,0.1119972635503208
7.835075999999999,6.3309117312817085,0.1117050515248251
7.837472,6.341483209379104,0.11141534823344
7.83986,6.354196557849775,0.1110873166255924
7.842243999999999,6.364116409641111,0.1107879230026526
7.84464,6.371242764753113,0.1105172767172857
7.847028,6.386889379529979,0.1101569471373095
7.849408,6.400114584679848,0.1098472285128266
7.851804,6.41147745871016,0.1095558054827352
7.854188000000001,6.421489858300114,0.1092965854829216
7.856584,6.433364589009624,0.1090194654210958
7.858988,6.44188674453236,0.1088019935860697
7.861371999999999,6.452970079308951,0.1085266210289252
7.863752,6.465403888525904,0.1082200387505884
7.866147999999999,6.467966963637631,0.1080354830940373
7.868535999999999,6.469738642816439,0.1078531724240349
7.870915999999999,6.470718926062329,0.107672514606338
7.87332,6.467695007815386,0.1075420404454068
7.875707999999999,6.464391550314723,0.1074268442404723
7.878088,6.461879488746979,0.1073107477814015
7.880483999999999,6.4529418160594005,0.1072914363440565
7.882871999999999,6.447728805610938,0.1072380082966556
7.885251999999999,6.448894184454063,0.1071330833442196
7.887656,6.45527446960352,0.1069566171537138
7.890039999999999,6.464076164379974,0.1067339185613777
7.892424,6.475950895089484,0.1064725574302432
7.894819999999999,6.484100963559881,0.1062472231710907
7.897207999999999,6.494253132776695,0.1059985630778165
7.899588,6.506547172366785,0.1057194159542705
7.901987999999999,6.522054017516791,0.1053949016008426
7.904375999999999,6.537560862666798,0.1050721526815915
7.906756,6.553859103749722,0.1047479443871917
7.909155999999999,6.57360246781804,0.1044106596652409
7.911543999999999,6.593857688565554,0.1040904192524096
7.913924,6.621981542671876,0.1036868478681873
7.916319999999999,6.649965627151339,0.1032934494614261
7.918708,6.678182029056278,0.1029298238897383
7.921087999999999,6.71026286282719,0.1025288702012477
7.923484,6.742203926971244,0.1021347239110252
7.925867999999999,6.774005221488437,0.1017500182330826
7.928264,6.807948386378905,0.1013338039811671
7.930667999999999,6.840960385709598,0.1009288949915409
7.933056,6.871970284293872,0.1005518343023131
7.935435999999999,6.902281334743845,0.1002162175237937
7.937835999999999,6.930962371499738,0.0999247915365026
7.940224000000001,6.959224099375051,0.0996580558332726
7.942603999999999,6.985204187250227,0.0994266486809745
7.945003999999999,7.011044505498543,0.0992036289479993
7.947391999999999,7.039538550799333,0.0989705162298536
7.949771999999999,7.067892826473264,0.0987475375556056
7.952176,7.096107332520333,0.0985328097353392
7.954563999999999,7.125672313007763,0.0982918694905114
7.956944,7.148579364949883,0.0981053078412956
7.959344,7.169763855399308,0.0979263966531373
7.961732,7.18615274842298,0.0977888179561847
7.964112,7.200539540700236,0.0976711476628642
7.966507999999999,7.213343541111654,0.0975528035339882
7.968892,7.220281008910685,0.0974867314211393
7.971271999999999,7.230431282269628,0.0973816090786183
7.973668,7.239650390068792,0.097283197973573
7.976056,7.252594160107072,0.0971602464097106
7.978436,7.264606764585572,0.0970442162584847
7.980831999999999,7.27424518126532,0.0969279616586821
7.983216,7.277644978280339,0.0968425411656064
7.985595999999999,7.281464084175939,0.0967373294305314
7.987999999999999,7.282489693392203,0.0966511884963244
7.990387999999999,7.28286367630241,0.096557770650885
7.992768,7.28165486734678,0.0964637997841354
7.995168,7.274998834659343,0.0964010702290706
7.997555999999999,7.26582884454629,0.0963436435430064
7.999936,7.2550760625674,0.0962853052674735
8.002332,7.24446305021537,0.0962199610755542
8.004719999999999,7.239996109729451,0.0960917107590799
8.0071,7.237671039616809,0.0959386348436399
8.009504,7.235345969504165,0.0957852229523407
8.011887999999999,7.233160669018384,0.0956249306025227
8.014268,7.235259109279156,0.0954151511008817
8.016664,7.243643391032899,0.0951365195703067
8.019052,7.248582549801249,0.0948701057718285
8.021448,7.252078686330623,0.0945955148543845
8.023844,7.252269469501465,0.0943266454605464
8.026228,7.255673058232222,0.0940227679227112
8.028611999999999,7.257865942149481,0.0937365526403816
8.031016,7.265133962746213,0.0934017421333327
8.0334,7.270539652223388,0.0930778674455935
8.035779999999999,7.277435585767781,0.0927225134026106
8.038184,7.289406655991647,0.0923209381412721
8.040572,7.30337982696193,0.0919026976060479
8.042952,7.320286264238408,0.0914617608984219
8.045356,7.337844327820943,0.0910283650668864
8.047744,7.355262621776619,0.0906007379223145
8.050124,7.3697476494261,0.0901965234798486
8.05252,7.380228475582746,0.0898291757163571
8.054904,7.386565330619698,0.0895029356990509
8.057284,7.3961149912165665,0.0891427305039821
8.059692,7.4068753566269345,0.0887645955958556
8.062076,7.412700354984689,0.0884267831373189
8.06446,7.419316749275362,0.0880932624842041
8.066856,7.426584769872092,0.0877674703118659
8.069239999999999,7.438648387894576,0.0874118360768793
8.07162,7.448430365916922,0.0870846662839681
8.074016,7.453137207259795,0.0868018847064408
8.076404,7.465712681961475,0.0864640375338519
8.078783999999999,7.478939782969213,0.0861362312062094
8.08118,7.498033416589341,0.085770190991319
8.083563999999999,7.513774475022694,0.0854418563277931
8.085948,7.522578065657018,0.085164732215301
8.088344,7.529100016291204,0.0849155187320354
8.090732,7.534411262111892,0.0846837941662738
8.093128,7.540933212746077,0.0844360620429904
8.095524,7.55066796894018,0.0841576118237551
8.097908,7.566920884052731,0.0838501017448951
8.100292,7.580752389538284,0.0835738406505327
8.102696,7.595794599837336,0.0832800123376497
8.10508,7.607624004576472,0.0830189092563543
8.10746,7.617031999688611,0.0827904194438445
8.109864,7.629093721853224,0.082554858866274
8.112252,7.635149141778588,0.0823640990048376
8.114632,7.639993856890452,0.0821897341410245
8.117036,7.638552730509346,0.0820718575836758
8.119424,7.636971834501379,0.0819595361041608
8.121804,7.639534909613106,0.0818117329806087
8.1242,7.635300286552664,0.0817067566427213
8.126588,7.627852857932307,0.0816325139254798
8.128968,7.615190523005617,0.0816028495857565
8.131364,7.605601224011982,0.0815486400934488
8.133752,7.602530083936797,0.0814653051942954
8.136132,7.599738483115331,0.0813697372747988
8.138536,7.598017817480504,0.0812641412630918
8.140924,7.592013411099122,0.0811988449801441
8.143304,7.581865033598047,0.081167686703402
8.1457,7.565198497178524,0.0811642683159493
8.148088,7.55602850706547,0.0810908045875673
8.150468,7.547929452139054,0.0810071043988962
8.152872,7.540109936466359,0.0809111613353689
8.15526,7.536993470420798,0.0807577558889888
8.157639999999999,7.533504917322901,0.0805846511238885
8.160036,7.532298004225141,0.0803852101494024
8.162424,7.531510400007962,0.0801674719836732
8.164804,7.535146306164196,0.0799040570146375
8.1672,7.5399929171339295,0.0796239151192146
8.169588,7.544839528103663,0.0793459621832116
8.171968,7.548475434259899,0.0790827905481013
8.174363999999999,7.55574345485663,0.0787733848745354
8.176752,7.56343078433394,0.0784456071004045
8.179136,7.5741911497443075,0.0780970648895153
8.181528,7.580435456982643,0.0777616221930313
8.183916,7.587750699407617,0.0774167985766788
8.186312,7.588408013287282,0.0771011972794813
8.188711999999999,7.592557671980584,0.0767440232327512
8.191096,7.599780366606941,0.0763641206507902
8.193476,7.607003061233298,0.0759827090990232
8.195876,7.607148518433766,0.0756510937199481
8.198264,7.60915630675379,0.0753137527891173
8.200644,7.615028526939788,0.074958343554654
8.20304,7.621412603804983,0.0746204515709984
8.205428,7.627237602162739,0.0743065262091076
8.207808,7.638789363506024,0.0739702149368265
8.210204,7.6562076574617,0.0736069721466738
8.212591999999999,7.671344311417239,0.0732679574246036
8.214976,7.690485166865611,0.0729075839001239
8.217372,7.706133677500347,0.0725856146442386
8.219756,7.724063828135219,0.0722403040958935
8.22214,7.739712338769955,0.0719200480327375
8.224536,7.759737137949862,0.0715989218734731
8.226924,7.773615865263659,0.071317893423899
8.22932,7.791498794070289,0.0710155204922959
8.231716,7.8141773203026705,0.0706975428473592
8.2341,7.848588911759832,0.0703268532817776
8.23648,7.882581194336414,0.0699743681821534
8.238884,7.917085333592192,0.0696383590024127
8.241272,7.954103430273588,0.0693057942707237
8.243651999999999,7.996196663634454,0.0689449475635502
8.246052,8.035216861062265,0.068604673716193
8.248436,8.068602843303163,0.0683162824455166
8.25082,8.09691368886459,0.068057940087184
8.253216,8.124944995172294,0.0678105753317152
8.2556,8.143757193680836,0.067618767515919
8.25798,8.15735448588304,0.0674627810936912
8.260384,8.172814109204804,0.0673023556363913
8.262772,8.186783488459348,0.0671674040818931
8.265152,8.200101241407832,0.0670233650415878
8.267548,8.215141555849018,0.066881163612111
8.269931999999999,8.230042100663338,0.0667447078987975
8.272316,8.238424486559214,0.0666242118869136
8.274716,8.254675505813895,0.0664707274103486
8.277104,8.268365345814717,0.0663490270933338
8.279487999999999,8.274838178762792,0.0662695375004251
8.28188,8.274094004658116,0.0662315994882487
8.284267999999999,8.275631470553579,0.0661739924742841
8.286664,8.276657079769842,0.066103000667425
8.28906,8.277962228239828,0.0660218141434567
8.291447999999999,8.277777132642594,0.0659636158063264
8.293828,8.280385533724694,0.0658997477307033
8.296232,8.287417445180209,0.0658023338567987
8.29862,8.29752239256878,0.0656888263447446
8.301,8.311119684770986,0.065544614587694
8.303396,8.333936084772361,0.0653530850760452
8.305784,8.355681549587093,0.0651684862368181
8.308164,8.37649584884205,0.064986327727895
8.310568,8.39586712585803,0.0647934516483764
8.312952,8.417892129926486,0.0646000896217064
8.315336,8.434841997315468,0.0644311593495301
8.317736,8.452862799891088,0.0642559236858124
8.320124,8.474887803959541,0.0640633661094956
8.322504,8.491325814669327,0.0638832755371698
8.3249,8.51032500463297,0.0636752579233821
8.327284,8.530674669036971,0.0634496093716859
8.329664,8.55209526862761,0.0632170179860614
8.332068,8.570303062658335,0.0630058497349656
8.334456,8.58757969112928,0.0627974565121774
8.336836,8.604344462921029,0.0625767634158854
8.339231999999999,8.621528543593357,0.0623419467387266
8.341619999999999,8.637129832399848,0.0621013494127183
8.344,8.652219264527144,0.0618490928054097
8.346396,8.6674484662813,0.0615931130296481
8.348784,8.678673466542621,0.0613540807538658
8.351163999999999,8.683100768631775,0.0611359594020562
8.35356,8.689018314788148,0.0608968468656616
8.355948,8.696565874638598,0.0606327226135316
8.358343999999999,8.702251103369493,0.0603711044277002
8.36074,8.709054489115271,0.0600716918585821
8.363124,8.723354421167517,0.0597305037824901
8.365504,8.737002726913705,0.059381998385325
8.3679,8.751721967846532,0.0590296047252314
8.370288,8.766301439152498,0.0586819307262338
8.372664,8.778878809712047,0.0583429271067007
8.375072,8.79438944657779,0.0579969656571695
8.377456,8.8083172915777,0.0576432823720412
8.37984,8.826389107697302,0.0572726842976111
8.382235999999999,8.843389988630266,0.0569082123033275
8.384624,8.861042495869288,0.0565538998877351
8.387004,8.87790360717539,0.0561971916542965
8.389408,8.894764718481495,0.0558413584250214
8.391792,8.907621628294766,0.0554986977196472
8.394172,8.919547372548257,0.0551579371490268
8.396568,8.929471016055333,0.0548223590177422
8.398956,8.941536529935684,0.0544757128227757
8.401352,8.95425367012209,0.0541388536879254
8.403748,8.96734289736084,0.053822108295048
8.406136,8.984436326092421,0.0534943649548248
8.408512,8.997618101129786,0.0532065847593768
8.410912,9.005445200233957,0.0529465714250441
8.413295999999999,9.012061594524631,0.0526965844965369
8.41568,9.01453401769561,0.0524628955071157
8.418076,9.017937606426369,0.0522286698556675
8.420463999999999,9.021341195157126,0.0519947682542141
8.422844,9.02115989127563,0.0517583332057511
8.425248,9.02484301926011,0.0515159796416553
8.427632,9.026384276871312,0.0512848372692457
8.430016,9.026994368922734,0.0510534943411606
8.432412,9.027464691347296,0.0508273887885693
8.4348,9.026584539331498,0.0506152228105721
8.43718,9.022631351382646,0.0504124853247604
8.439575999999999,9.023333991232686,0.0502083698682696
8.441964,9.020032429589891,0.0500136365863516
8.44436,9.019803903880153,0.0498085328943931
8.446756,9.017293738170276,0.0496173166581497
8.449144,9.011850306154203,0.0494310704041652
8.451528,9.000680111152604,0.0492499946574963
