Time,Force,Position
6.915132000000001,2.993866296013984,0.1916410284769271
6.9175320000000005,3.192820165253308,0.1865983643039337
6.91992,3.3907068910217326,0.1808412161507432
6.922296,3.57407084660178,0.1761778787688256
6.924691999999999,3.743982967180089,0.1723348543316969
6.927079999999999,3.900209039473313,0.1692898458709399
6.92946,4.048987683146178,0.166390590932274
6.931852,4.186734005586435,0.1637974209183048
6.93424,4.314985472689543,0.1612789731730355
6.936635999999999,4.42457019848458,0.1593030667641826
6.939036000000001,4.5228902856215285,0.1575074278963469
6.996376000000001,4.5470892150285485,0.1565027832836537
6.99876,4.5531408432381735,0.1564557751425359
7.00114,4.563428990366109,0.1563398017003798
7.003536,4.574136446374625,0.1561875607123972
7.005923999999999,4.585402980890581,0.1559852103347062
7.00832,4.604305831339868,0.155529864208594
7.010724000000001,4.625490321789292,0.154979998934995
7.013108,4.644160854813102,0.1544806408194644
7.015488,4.659106725597798,0.1540717915240118
7.017892000000001,4.673680509330157,0.1536408001620841
7.0202800000000005,4.684809170077124,0.1532678275125624
7.022659999999999,4.695518521943509,0.1529308182523377
7.025064,4.704737629742675,0.1526667905643197
7.027448000000001,4.711814867168563,0.1524746843130965
7.029827999999999,4.716610464594316,0.1523604976808361
7.032227999999999,4.72634142907268,0.1521188368470544
7.034612,4.742218465417155,0.1517048147192334
7.036992000000001,4.760144824336289,0.1511866472345017
7.039388,4.785335412136416,0.1504199892847436
7.041776,4.799771322099784,0.1498574730288821
7.044156,4.808899777958201,0.1493885638385135
7.046556,4.809507974151755,0.1491109128976245
7.048939999999999,4.809511765867493,0.1487716722405385
7.051324,4.810074636090673,0.1483873838698323
7.053719999999999,4.814501938179826,0.1479163406944565
7.056107999999999,4.818742248813875,0.1475185403107313
7.058488,4.830431883926151,0.14697534472605
7.060884000000001,4.841330123105509,0.1464414721475606
7.063272,4.856279785605944,0.1457582903840897
7.065651999999999,4.867876872919602,0.1451721007008685
7.068052000000001,4.885572810271129,0.1444906863319285
7.0704400000000005,4.903688056503237,0.1437753104217013
7.072819999999999,4.921710754936727,0.143014962870381
7.075216,4.93270343777257,0.1423628792620986
7.0776,4.942764955048636,0.1417260102004686
7.079996,4.949334127511067,0.1411994443525577
7.082392,4.957114004786996,0.1406428726464833
7.084779999999999,4.962240155010449,0.1401364483392724
7.08716,4.960800924487212,0.1398126072973964
7.089555999999999,4.97169916366657,0.1393077064385368
7.091944000000001,4.990838123257072,0.1386656934353659
7.094323999999999,5.017054320273464,0.1378661860953521
7.096728,5.043130747662995,0.1370872137127801
7.099116,5.068927635798807,0.1363337523715138
7.101496,5.0932342798673975,0.1356473760285797
7.103896,5.116237671323874,0.1349514039462593
7.177968000000001,5.209803695289707,0.1346495071693665
7.185135999999999,5.228842523650116,0.1346322353819979
7.18752,5.246440225629418,0.1344572750349936
7.189915999999999,5.265248632422218,0.1342464428879909
7.192303999999999,5.281170994737066,0.1340351266424853
7.194684,5.296022421865277,0.1338486750440107
7.197080000000001,5.322327374964547,0.1334622173165855
7.199468,5.351984903250592,0.1329940030496753
7.201847999999999,5.37661451668541,0.1325789317850416
7.204251999999999,5.398450633440893,0.13221222736726
7.206636,5.4185641887036775,0.1318646619994536
7.209015999999999,5.432671441727213,0.1316351176236544
7.211419999999999,5.44584752919097,0.1314203803511193
7.213807999999999,5.460094551841365,0.1311838889733153
7.216188,5.470988999304984,0.1310318886300164
7.218592,5.486539274567495,0.1308107698391844
7.22098,5.507956082442395,0.1304885157694286
7.22336,5.524996601772125,0.1302217740689791
7.225756,5.543387595542215,0.1299142203157625
7.228140000000001,5.560428114871945,0.1296523434814865
7.230524,5.581612605321369,0.1293086237026909
7.232928,5.601773382412397,0.128935800715838
7.235311999999999,5.6159750790924186,0.1286234416253761
7.237692,5.633110042078635,0.1282658568845656
7.240092,5.653829897677105,0.1278661056153013
7.242475999999999,5.675388371036735,0.1274119840018799
7.244855999999999,5.687635188798583,0.127091877209917
7.24726,5.700441085067872,0.1267421716874822
7.249648,5.716971643576274,0.1263437175266559
7.252024,5.732710806151758,0.1259481272583981
7.254428,5.752454170220075,0.1254876994093525
7.256816,5.779414541341142,0.1248986858827542
7.259196,5.807725386902567,0.1242726918200194
7.261591999999999,5.83231157022488,0.1236969546219788
7.263976,5.8571772928009125,0.1231034172301359
7.26636,5.875944165339077,0.1225713939496535
7.268759999999999,5.8859112389586565,0.1221743468633204
7.271147999999999,5.896157851831957,0.1217606012159909
7.273528,5.907335630265036,0.121338607919374
7.275924000000001,5.918932717578695,0.1208930109760899
7.278312000000001,5.927596538586158,0.120492845672566
7.280691999999999,5.940776417765654,0.120047494439311
7.283096,5.959403520676958,0.1195461188548055
7.285480000000001,5.9761682924687065,0.1190730642895829
7.287859999999999,5.991070733140898,0.1186248395798884
7.290264,6.005274325678789,0.1182198148787702
7.292651999999999,6.02562399008279,0.1177166832849573
7.295032,6.038477108180322,0.1173490341998978
7.297436,6.049328125531436,0.117013708051577
7.299824,6.06125007806919,0.1166592044422304
7.302204000000001,6.068376433181191,0.1163679223978692
7.3046,6.0682857812404425,0.1161934504631584
7.306988,6.066332798180139,0.1160401580575259
7.309368,6.06717331179917,0.1158551387330596
7.311763999999999,6.0668031206047015,0.1156970561418918
7.314151999999999,6.069878052395626,0.1155131366486251
7.316536,6.07881951679894,0.1152468661877885
7.318931999999999,6.088133068254593,0.1150045169380467
7.321319999999999,6.09451335340405,0.1148032875386825
7.3237,6.097680832993592,0.1146587608309356
7.326104,6.10378157888933,0.114475041492085
7.328492,6.105226496986176,0.1143444548803478
7.330872,6.101875817657269,0.1142736734933162
7.333276000000001,6.096243498328225,0.1142478158016138
7.335664,6.089540243812543,0.1142403337741043
7.340447999999999,6.077623978848397,0.1141810249939024
7.342835999999999,6.075204465079269,0.1141000647397445
7.345216,6.0735763472430575,0.1140173852193311
7.347612000000001,6.073670790899544,0.1139233168152249
7.35,6.075487796048727,0.1138173372015873
7.352379999999999,6.082240168250522,0.113645171482422
7.354783999999999,6.088713001198596,0.1134889015979152
7.357171999999999,6.095185834146672,0.1133335601110005
7.359552,6.102077975975325,0.1131531192533579
7.361947999999999,6.110972218550397,0.1129469758588736
7.364336000000001,6.117864360379052,0.1127685964226676
7.36672,6.123173710341871,0.1125934925218094
7.369112,6.131276556984025,0.112389895588917
7.3715,6.148318972171625,0.1120715543001543
7.373880000000001,6.163359286612806,0.1117823329962942
7.37628,6.179051227360047,0.1114995061620615
7.378664,6.195394794413346,0.1112225579187974
7.381048000000001,6.214159771093642,0.110895400177134
7.383451999999999,6.235066618147213,0.1105341268240701
7.385839999999999,6.250898328521316,0.1102451953805605
7.388224,6.26952353557475,0.1099275697064319
7.390619999999999,6.284935937068271,0.1096627375709777
7.393007999999999,6.299556942628873,0.1094001071985858
7.395388,6.311244681883278,0.1091738473963568
7.397784000000001,6.325865687443881,0.1089141067796074
7.400172,6.3395555274447055,0.1086656226797745
7.402551999999999,6.355247468191945,0.108391564533919
7.404952000000001,6.370148013006268,0.1081200291317348
7.407336,6.39077532080612,0.1077917933214
7.409716,6.405536095993583,0.1075320578166781
7.412120000000001,6.4233699071141,0.1072319353500864
7.414508,6.4412037182346165,0.1069310133686242
7.416887999999999,6.4562440326758,0.1066573007104463
7.419291999999999,6.461413613011759,0.1065023195567363
7.421676000000001,6.463649927041522,0.106379833105049
7.424055999999999,6.466026010698145,0.1062497477517329
7.42646,6.470823503981767,0.1060728267200551
7.428844000000001,6.475481227638527,0.1059045921215809
7.431223999999999,6.47920778573551,0.1057452890604273
7.43362,6.486938545325327,0.105538073128849
7.436004,6.497090714542141,0.1052868115306983
7.438388000000001,6.510735228572591,0.1049750623129009
7.440784,6.523588346670122,0.1046639416764872
7.443172,6.5416563710739855,0.1042861228596292
7.445552,6.556279272492457,0.1039275315164131
7.447947999999999,6.572252648351285,0.1035424471684953
7.450335999999999,6.590228124956533,0.1031385450765886
7.452732,6.609134767121558,0.1027289967760421
7.455127999999999,6.622174876674194,0.1023824768586075
7.457512,6.64108151883922,0.1019777642299334
7.459891999999999,6.662130031377522,0.1015506899072119
7.462295999999999,6.685180644662243,0.1011031017858939
7.46468,6.711164524253157,0.1006289084489026
7.467059999999999,6.739150504590488,0.1001298475397168
7.469451999999999,6.771000916793792,0.0995930910429419
7.471839999999999,6.802851328997097,0.0990572307104319
7.47422,6.830557770080707,0.0985728561133092
7.476636,6.855191175231263,0.0981240758401413
7.479019999999999,6.880755745941596,0.0976704830247917
7.4814,6.90632031665193,0.0972218618883295
7.483804,6.927601146615709,0.096832021040458
7.486192,6.948602437325768,0.0964608157265509
7.488572,6.970395123968747,0.09609000144917
7.490968,6.9841794076260575,0.0958015080462179
7.493355999999999,7.0007571879627015,0.0954949729525147
7.495736,7.011980292366154,0.0952559497855299
7.49814,7.017336864157215,0.0950702603437605
7.500528,7.021482731134777,0.0949053228494599
7.502908000000001,7.026699533298979,0.0947269810541095
7.505308,7.026049802850789,0.0946013006165699
7.507696,7.01939377016335,0.0945347671491671
7.510076000000001,7.01259796784905,0.0944749564503895
7.512472,7.003800064788334,0.0944342796058327
7.51486,6.998866593593592,0.0943618835663731
7.51724,6.993141726465931,0.0942888171138581
7.519644,6.986485693778491,0.0942217401039785
7.522032,6.983833862583886,0.0941166823923234
7.524412000000001,6.981182031389281,0.0940111568742421
7.541148000000001,6.905487561082864,0.0939368201414509
7.543536,6.896782205820764,0.0939297792543145
7.545915999999999,6.893151987238137,0.0938711256408952
7.548319999999999,6.889941077536091,0.0937919081696877
7.550707999999999,6.8865903982071845,0.0937194660193344
7.553088,6.889106251490668,0.093596761920434
7.555484000000001,6.893344666266849,0.0934683217872912
7.557868,6.897862620296749,0.0933269639743493
7.560248,6.90252034395351,0.093179028898062
7.562651999999999,6.903313635744297,0.0930623785871352
7.565040000000001,6.906900424214419,0.0929287406126301
7.567424,6.914351644550514,0.092765774523305
7.569824,6.922734030446388,0.0925989015627527
7.572211999999999,6.936051783394875,0.0923909803490845
7.574592,6.95058024115686,0.0921640889007515
7.576996,6.973536410785092,0.0918462256573192
7.579384,6.996352810786465,0.0915328868833064
7.581764000000001,7.016515483735363,0.0912285331048415
7.58416,7.035374904072146,0.0909098520125603
7.586543999999999,7.054653633289509,0.0905742802905894
7.588928,7.078076333626568,0.0901933192086669
7.591323999999999,7.099357163590347,0.0898389010763207
7.593708,7.118496123180848,0.0895111834195159
7.596087999999999,7.138286709077408,0.0891927168516464
7.598491999999999,7.159148230160607,0.0888635207061891
7.600879999999999,7.176936715310751,0.0885658769740288
7.60326,7.195004739714614,0.0882555944616063
7.605656000000001,7.209859958558562,0.0879811363770276
7.608044,7.223644242215872,0.0877186555756899
7.610423999999999,7.234495259566987,0.0874768677225474
7.612827999999999,7.243763485052266,0.0872350391784046
7.615215999999999,7.249307048298431,0.0870153287006344
7.617596,7.24712174781265,0.0868498504264293
7.62,7.244284821020811,0.0866776207313261
7.622383999999999,7.24223929016189,0.0865070110353688
7.624764,7.236980953743053,0.0863713803812117
7.627168,7.23586658844391,0.0861970570129659
7.629556,7.239687590197379,0.0859855656725
7.631936,7.244811844562962,0.0857901273395438
7.634339999999999,7.246863062995492,0.0856223138280406
7.636728000000001,7.250916382174437,0.0854393373451184
7.639107999999999,7.257391110980381,0.0852226836588894
7.641504,7.269080746092657,0.0849604504632157
7.643892,7.278908050085375,0.0847076120255142
7.646272000000001,7.287943958145177,0.0844540953252652
7.648675999999999,7.299541045458835,0.0841622192466786
7.651064000000001,7.31407139907869,0.0838531843011817
7.653443999999999,7.333816659004877,0.0834992438078643
7.655843999999999,7.353422149304204,0.0831505557932102
7.658228,7.380896272962337,0.0827495867459802
7.660611999999999,7.405157591060555,0.0823807391213224
7.663008,7.429139369905053,0.0820235128675361
7.665392,7.461129551735218,0.0816072480396927
7.667775999999999,7.48883599281883,0.0812339762686042
7.670172,7.51682197315616,0.0808509048167786
7.67256,7.53880165125424,0.0805093811590977
7.67494,7.560921098979182,0.0801656636642505
7.677335999999999,7.583180316330982,0.0798197798631435
7.679723999999999,7.607069547376863,0.0794427276208587
7.682104,7.63417158398266,0.0790378498190321
7.684500000000001,7.659551059095759,0.0786374182550869
7.686888000000001,7.680926332716025,0.0782657179639288
7.689272,7.691080397790708,0.0779772659772508
7.691672,7.703376333238668,0.0776700076602443
7.694056000000001,7.71353039831335,0.0773818091263721
7.69644,7.718609326708561,0.0771302710823056
7.698844,7.719823823237799,0.0769001471770503
7.701232,7.717965283833981,0.0766935143375657
7.703612000000001,7.7205302548035775,0.0764443670680236
7.706008,7.720441498720698,0.0762015687144704
7.7084,7.725008570436713,0.0759423694917666
7.710780000000001,7.731065886219945,0.0756567037399272
7.713183999999999,7.737123202003177,0.0753740001840642
7.715572000000001,7.745462157786546,0.0750672218615046
7.717951999999999,7.753940883196777,0.0747563521533213
7.720351999999999,7.769776385286616,0.0743883424320289
7.722739999999999,7.784261412936096,0.0740428938931441
7.725124,7.7944626998390225,0.0737330867108293
7.727519999999999,7.80331351230159,0.0734452990581871
7.729904,7.809091288831101,0.0731786249489314
7.732288,7.819664662786364,0.0728943734421432
7.734692,7.832100367861184,0.0726041841112934
7.73708,7.849750979242336,0.0722742758813196
7.73946,7.867261820996629,0.0719517973320441
7.741852000000001,7.890639195363311,0.0716028695512812
7.74424,7.918532627902026,0.0712456789773509
7.746624,7.948288391560296,0.0708839591071405
7.749020000000001,7.979115090405205,0.0705158184987744
7.751404,8.009662249996394,0.0701641070352227
7.753784,8.039790100707004,0.0698312182178376
7.756191999999999,8.068335159551774,0.0694954946283032
7.758579999999999,8.098463010262384,0.0691680714809108
7.76096,8.124446889853298,0.0688688736417752
7.763355999999999,8.148288899070934,0.0685854028291842
7.765744000000001,8.171571829781131,0.0683250840727157
7.768123999999999,8.196297782730303,0.0680796847988937
7.770528,8.219440943813641,0.0678290159674294
7.772915999999999,8.243515270456754,0.0675749958135766
7.775296,8.26665843154009,0.0673244014433065
7.7777,8.289801592623427,0.0670738832806958
7.780083999999999,8.304284724415039,0.0668553577336215
7.782464,8.319699021766429,0.0666354691018388
7.784868,8.339117520610651,0.0663979117691216
7.787256,8.356673688335317,0.066165216399904
7.789636000000001,8.367571927514675,0.0659532751201872
7.792032,8.374605734828057,0.0657548995537601
7.79442,8.377775110275469,0.0655696954073396
7.7968,8.375869349043407,0.0654099711158828
7.799192000000001,8.365024019265901,0.0652891740451053
7.80158,8.35138519280906,0.065174233254442
7.803959999999999,8.334952869672884,0.0650647484572889
7.806356,8.315866819484233,0.0649554961565162
7.808744,8.294918438176024,0.0648496316140198
7.811124,8.281047294293705,0.0647088948014694
7.81352,8.263591257799133,0.0645701912899551
7.815907999999999,8.238685896826334,0.0644461775193882
7.818304,8.215363327719372,0.0643284214543935
7.820708000000001,8.194462168239406,0.0641854748446685
7.823092,8.173561008759439,0.064042091654617
7.825472,8.154522180399033,0.0638947137677793
7.827876000000001,8.140139179837515,0.0637377338299536
7.83026,8.124964783343081,0.0635770750341901
7.83264,8.10699689016931,0.0634213297368505
7.835036,8.091031097741958,0.063256678444244
7.837423999999999,8.082794169046549,0.06306878371504
7.839808,8.079120520351418,0.0628435688473608
7.842204,8.07945107314912,0.0626014020199626
7.844587999999999,8.086998632999572,0.0623226916801969
7.846972,8.102834135089413,0.0619997862155221
7.849367999999999,8.121882442739166,0.0616572130653984
7.851755999999999,8.140511441508341,0.0613290843016357
7.854136,8.164867203263045,0.0609899398404979
7.856532,8.193227166510583,0.0606347095300989
7.85892,8.214649661959093,0.0603075502303554
7.861299999999999,8.242357998900573,0.059948038574784
7.863703999999999,8.275793098827581,0.0595757292853856
7.866091999999999,8.307785176515615,0.0591919713687905
7.868472,8.336564448643735,0.0588282118568928
7.870868000000001,8.363481389652298,0.0584669906159558
7.873256,8.392540201034135,0.0580963170104546
7.875635999999999,8.420667846856196,0.0577282268761738
7.878036000000001,8.449726658238035,0.0573608453951956
7.88042,8.47929732629907,0.0570091469918162
7.882803999999999,8.507936828800329,0.0566603580994634
7.8852,8.528707697942782,0.0563367971182715
7.887588,8.546125991898457,0.0560379090601887
7.889983999999999,8.564615221040771,0.0557352385619288
7.89238,8.576958378316974,0.055458648472232
7.894768,8.584086629286846,0.0552064862534117
7.897148,8.589864405816357,0.0549706341453638
7.899556,8.598854987905785,0.0547175245245109
7.901940000000001,8.601187641449902,0.0544761450332242
7.904324,8.6044514605538,0.0542351537219333
7.906719999999999,8.61036900671017,0.0539968288873405
7.909108000000001,8.613865143239547,0.0537808229338779
7.911487999999999,8.61736127976892,0.053566082498504
7.913884,8.624442308910547,0.0533546511376658
7.916272,8.636598474731649,0.0531266913058932
7.918652000000001,8.649685806112526,0.0528978485427091
7.921055999999999,8.657046374507875,0.0526775661136681
7.923443999999999,8.665477878089861,0.052452661156086
7.925823999999999,8.669765410552154,0.0522436680687728
7.92822,8.670328280775333,0.0520361356632674
7.930608,8.668889050252096,0.051833968442912
7.932992,8.669312150848414,0.0516301465267265
7.935388,8.669595481817874,0.0514307941441376
7.937776,8.6658746112945,0.0512427196734894
7.940155999999999,8.666809568570017,0.0510526542625565
7.942552,8.674542224017701,0.0508509656986246
7.94494,8.679621152412913,0.0506450353777568
