Time,Force,Position
6.45292,4.312970093651308,0.1618616252336328
6.455324,4.3254473329807634,0.1616054432276936
6.457712,4.34230086085539,0.161263030082025
6.460092,4.364089755782629,0.1607879283299258
6.462496000000001,4.392816118508897,0.1601290928253721
6.46488,4.428200409780473,0.159331271302122
6.4672600000000005,4.469031924783859,0.1584068130881341
6.46966,4.5140527368773125,0.1574462117648448
6.472044,4.563542385314555,0.1564460095083413
6.474424,4.616989013416387,0.1554223692854769
6.476820000000001,4.6709474981974175,0.154410372073659
6.479208000000001,4.726768314098004,0.1533481755209539
6.481584000000001,4.779516094065536,0.1523692288486714
6.483984,4.82481454955484,0.1515844724495506
6.486372,4.866016255752696,0.1508865218580064
6.488752000000001,4.905774939711573,0.1502248381688588
6.491155999999999,4.949957134043865,0.1494263386906354
6.493544000000001,4.995722120241994,0.1486216727892156
6.495924,5.046981552000176,0.1476591012096277
6.498328,5.094795860772964,0.146771841614154
6.500716,5.136743636933362,0.1460311160491133
6.503092,5.1705432404812335,0.1455109658222138
6.505488000000001,5.204063304775384,0.145017752179201
6.507872,5.235581268323118,0.1445796225784353
6.510252,5.261791777765901,0.1442359238956972
6.512656000000001,5.282415293850014,0.1440084812928777
6.51504,5.300105543627933,0.1438418213205683
6.51742,5.320496742286569,0.1435784386618676
6.519824000000001,5.340423306094252,0.1432501785886722
6.522208,5.353227306505671,0.1429839921872478
6.5245880000000005,5.36794085986489,0.1426330174998564
6.526992000000001,5.382654413224109,0.1422827815880953
6.529376,5.404025895128636,0.1418103625547235
6.531759999999999,5.428190873712498,0.1412881869777426
6.534160000000001,5.451704225990304,0.1407693735113371
6.536548000000001,5.467348944909301,0.1404090202394631
6.538927999999999,5.478849692708605,0.1401437104995975
6.541332,5.484623677522379,0.139983495262152
6.543716000000001,5.486952539350758,0.1398693475653462
6.546096,5.493053285246495,0.1396431266674467
6.5485,5.496919612970337,0.1394210927952603
6.550888,5.500646171067319,0.1392068771184123
6.553264,5.504931807671743,0.1389549213062443
6.555668,5.506331399798214,0.138706467479026
6.558056,5.507917983379789,0.1383951773024928
6.560436,5.500984307296498,0.1382326388888207
6.5628400000000005,5.4987064590121,0.1379912652083495
6.565224,5.500293042593674,0.1376815539743499
6.567608000000001,5.499225899122774,0.1374087861163349
6.570011999999999,5.501324339383547,0.1371137070421862
6.572396,5.498440190763463,0.1369664904048285
6.57478,5.498349538822717,0.1367747183768082
6.577176000000001,5.490157936097685,0.1366985906675111
6.57956,5.4810823896411165,0.1365842239249395
6.58194,5.467211245758798,0.1365532849731487
6.584344000000001,5.457716390421651,0.1364679373320385
6.5867320000000005,5.449944096577199,0.1363623109586609
6.639284000000001,5.315884693837158,0.1362897000156234
6.641687999999999,5.318817960143354,0.1362340710541839
6.644072,5.324312405703408,0.136099756776926
6.646451999999999,5.323428461971872,0.1360608782614414
6.648848,5.32612941085259,0.1359717717859409
6.651231999999999,5.332043165293223,0.1358098497343092
6.653616,5.339447163801076,0.135595369204514
6.656012,5.348853263055345,0.1353460626574227
6.658399999999999,5.357048657496116,0.1351313053889464
6.660775999999999,5.3738568594003695,0.13481704636074
6.663172,5.390105982797181,0.1345407116292116
6.665556,5.405935797313411,0.1342906492395714
6.6679520000000005,5.420415137389283,0.1340819198492545
6.670356000000001,5.437687974144492,0.1338275592023357
6.672744000000001,5.450397530899424,0.1336918609600183
6.675123999999999,5.46874130284127,0.1334113205897004
6.67752,5.487504383663697,0.1331050285109427
6.679904,5.50361373743365,0.1328348037713048
6.682284,5.518791925643823,0.1325808723951751
6.684688,5.530524990868604,0.132364341021353
6.687076,5.54561063128016,0.1320677887247159
6.689456000000001,5.558274862064718,0.1318432141821391
6.691859999999999,5.566934891356444,0.1316964673822592
6.694244,5.582904475499535,0.1314459274553365
6.69662,5.594730088522933,0.1312804901598596
6.706195999999999,5.609067763114077,0.1312411726879644
6.708583999999999,5.608416136808019,0.1312361554222855
6.710964,5.607951501957065,0.131170282453012
6.713368,5.612609225613826,0.1309585069904422
6.715751999999999,5.6246237259501966,0.1306004065219594
6.718136,5.635846830353648,0.1302474977554853
6.720532,5.64842040919746,0.1298501380832085
6.722916000000001,5.657920952108215,0.1295131701724093
6.725295999999999,5.6669096383397735,0.1291653751598509
6.7277,5.679902526064166,0.1287502759883394
6.730087999999999,5.693826579348334,0.1283239154600526
6.732468,5.712825769311977,0.1278061599166457
6.734872,5.727820757782785,0.1273613714717228
6.737256,5.742164119947536,0.1269129689671584
6.739636,5.758789122112425,0.1264135711160458
6.74204,5.771317374985862,0.1259453976905393
6.744428,5.786406807113157,0.1254060489643481
6.746808000000001,5.803777879240589,0.1248154649851176
6.749212000000001,5.820357555435103,0.1242282798987018
6.751596,5.840289806816393,0.1235684943594422
6.753976000000001,5.859151123011044,0.1229327960664157
6.756372,5.878664065511753,0.1223066960965298
6.75876,5.901342591744136,0.1216732708144384
6.76114,5.92118039946894,0.121133441874
6.763535999999999,5.939016106447326,0.1206374215925605
6.765923999999999,5.959133453425849,0.120097674237691
6.768304,5.983674310777788,0.1194760453541921
6.770700000000001,6.0120795999957,0.1188065023493615
6.773088,6.03526998290728,0.1182231397833168
6.775467999999999,6.054595933952887,0.1176962705271187
6.777872,6.073270258692435,0.1171661088530431
6.780259999999999,6.091013417872204,0.1166520993923151
6.78264,6.108616807425114,0.1161445643762165
6.785044,6.124078326604746,0.1156733766822631
6.787432,6.134185169851185,0.1152945404546477
6.789812,6.144524330523103,0.1149468006062842
6.792208,6.155515117501077,0.1146067960691418
6.832812,6.0406286251747,0.1144562943573606
6.835216,6.043422121854035,0.1144269381956817
6.837599999999999,6.047566092973729,0.1143637683461078
6.83998,6.053712164839839,0.1142742650229288
6.842376000000001,6.0678666396916165,0.1140764601140329
6.84476,6.082952280103173,0.113869621465551
6.847155999999999,6.097618611634149,0.1136865084993591
6.849552,6.1137279654041015,0.113509507959313
6.85194,6.13142011103989,0.1133289113928
6.85432,6.157772285967404,0.1130490169028262
6.856716,6.18756958388031,0.1127488990044785
6.859103999999999,6.226166680711802,0.1123417899402524
6.861484,6.262621907170016,0.111966054767293
6.863888,6.30056737769545,0.1115502313884196
6.866272,6.336510747474468,0.1111618227625147
6.868652,6.365935958335037,0.1108403923341051
6.871060000000001,6.399924449195879,0.1104371423986246
6.873444,6.438056911176416,0.1099783680536229
6.875827999999999,6.477539847597312,0.1094913091121378
6.87822,6.516510927339009,0.1089893567168335
6.880608,6.550686409654956,0.1085481365179709
6.882992000000001,6.579926524918291,0.1081735382481513
6.885388,6.608747331301045,0.1078239833775756
6.887776,6.633563936190964,0.1075265751236956
6.890156,6.6563784403344695,0.1072595793724816
6.8925600000000005,6.679612253358554,0.1069725733326717
6.894944,6.702613748957161,0.106656347534849
6.897328000000001,6.723241056757014,0.1063437890480415
6.899724,6.7448467519448885,0.1059818168183291
6.902107999999999,6.757420330788698,0.1056889824581707
6.904488,6.767107865154558,0.1053862283383968
6.906884000000001,6.768414909482412,0.1051559589066197
6.909268,6.773354068250762,0.1048580422608629
6.91166,6.776430895899556,0.1045763266489831
6.914064000000001,6.7807184283618485,0.1042719492248545
6.9164520000000005,6.791152032690252,0.1038919861381099
6.918828,6.797581435525821,0.1035597745357627
6.921232000000001,6.798563614629582,0.1032677736889967
6.9236200000000006,6.796892066680867,0.1029919553077847
6.925999999999999,6.798293554665207,0.1026801646030572
6.928404,6.797041315597074,0.1023825188375126
6.930788000000001,6.79606861578266,0.1020707828782283
6.933172,6.79486359854277,0.1017313820640676
6.935568000000001,6.796219760556736,0.1013421157118928
6.937956000000001,6.795993130704867,0.1009547728509206
6.940335999999999,6.793904169733438,0.1005821577971918
6.94274,6.793398000627849,0.100209659038127
6.945128,6.793962766708897,0.0998229229818436
6.947508,6.796250094282642,0.0994322570787864
6.949903999999999,6.804124415215058,0.0989999299979665
6.952292000000001,6.811579427266892,0.0985883737174844
6.954672,6.822479562304119,0.0981610884900434
6.9570680000000005,6.832029222900987,0.0977632640370573
6.959456,6.844651919430911,0.0973330253451884
6.961836000000001,6.8583455511474725,0.0968909628873426
6.964232,6.870037082117618,0.0964732836331395
6.96662,6.880657677901125,0.0960676196661967
6.969,6.89192989999069,0.0956680563513027
6.971396,6.90571607950587,0.0952642486578805
6.973783999999999,6.916149683834273,0.0949087645403087
6.976164,6.928166080028512,0.0945522009384703
6.978564,6.936829901035975,0.0942414806339696
7.031132,6.786323008296806,0.0942310605264986
7.033512000000001,6.789256274603001,0.0942059683816842
7.035908,6.797683986469249,0.0941102172886384
7.038296,6.807042863895274,0.0940084546086958
7.040692000000001,6.822408043560551,0.0938503334472265
7.043088,6.839915093599105,0.0936657615440445
7.045476,6.859284474757216,0.0934690903310946
7.047856,6.879073164795907,0.0932530842328156
7.050260000000001,6.901143494834736,0.0930090478409107
7.052644,6.924284760060202,0.092753758956948
7.055024,6.949567895658947,0.092473370698769
7.05742,6.973687548272436,0.0921719098845454
7.059807999999999,6.99515347383345,0.0918808306899143
7.062188,7.019320348275181,0.0915397264143612
7.064592,7.04683979790369,0.0911559493461523
7.06698,7.075569952345695,0.0907530037353565
7.0693600000000005,7.10565058122806,0.0903261704429227
7.071764000000001,7.13973541160326,0.0898683481032414
7.074148,7.163949507873235,0.0894955054139661
7.076528000000001,7.187372208210291,0.0891244534206171
7.078932000000001,7.207070246308235,0.0887739139810612
7.081320000000001,7.227699449965956,0.0884195766802963
7.083699999999999,7.243253516944207,0.0881144296902757
7.086096,7.26309132466901,0.0877659074447096
7.088484,7.283208671647533,0.0874095876291312
7.090864000000001,7.301463687506501,0.0870627145931275
7.09326,7.32027778187291,0.0866924199466261
7.095648,7.339371415493038,0.0863120605292161
7.098028,7.348454545381082,0.0860121304317481
7.1004320000000005,7.359400006388683,0.0857048437268139
7.10282,7.370485237023145,0.0853926622124565
7.105200000000001,7.383804885829501,0.0850923626537241
7.107596,7.400988966501829,0.0847674740778414
7.109979999999999,7.416962342360659,0.0844624068705538
7.112364,7.4298626822864335,0.0841846892359396
7.11476,7.443694187771988,0.0839035045135715
7.117147999999999,7.456454758070903,0.0836342120774838
7.119528,7.465490666130703,0.0833849902421543
7.121924000000001,7.480532876429755,0.083090816765778
7.124315999999999,7.494643921169028,0.0828021380620266
7.126696,7.516763368893969,0.0824564295118625
7.129092000000001,7.53287651437966,0.0821529824655977
7.131480000000001,7.549920825425128,0.0818451294763501
7.133859999999999,7.559748129417847,0.0815989317755391
7.136259999999999,7.564360527104233,0.0813988624311407
7.138648000000001,7.573908291843231,0.0811664747606869
7.141028,7.582105582141871,0.0809572142199762
7.143424,7.588812628373293,0.0807767754748271
7.145812,7.60459901277702,0.0805290086149381
7.148208,7.613727468635439,0.0803158259019792
7.150604,7.619922658187662,0.0801208238199501
7.152988,7.621601789567853,0.0799397982228141
7.155368,7.62048742426871,0.0797711782762403
7.1577720000000005,7.61737095822315,0.0796165758022694
7.16016,7.618538232924144,0.079422807819249
7.162540000000001,7.618774342065361,0.0792333241361612
7.164936,7.620081386393216,0.0790344987504432
7.167324,7.622040057027128,0.078844197982743
7.169704,7.621996626914622,0.0786679586451754
7.1721,7.622604823108175,0.0785000910649881
7.1744840000000005,7.616275551502699,0.0783759344598526
7.17688,7.61902561806953,0.0781898266254257
7.179276000000001,7.62205522389008,0.0779922376457009
7.1816640000000005,7.628157865643686,0.0777714948618902
7.184043999999999,7.635331442583931,0.0775404444234412
7.18644,7.6386405876582035,0.0773305845070618
7.188828,7.642369041613054,0.077103481630425
7.1912080000000005,7.644235164448349,0.0768828512814449
7.193604,7.644099186537227,0.0766764042403866
7.195988000000001,7.64661693567858,0.0764641768850445
7.198384,7.652347490379848,0.076224059650309
7.200780000000001,7.66194247694709,0.0759639282989817
7.203168000000001,7.674330960193667,0.0756944170028252
7.205547999999999,7.685788277880467,0.0754274600319854
7.207952,7.690819984447435,0.0752165132887343
7.210339999999999,7.695851691014403,0.0750058750777387
7.21272,7.70060385832765,0.0748077542237872
7.21512,7.702562528961561,0.0746193948486633
7.217504000000001,7.705312595528391,0.0744339753945207
7.219883999999999,7.705688474296467,0.0742407664530245
7.222292,7.708066453810959,0.074034895589955
7.224676,7.707231627765537,0.0738574105110504
7.227056,7.7050463272797565,0.0737002738682869
7.229451999999999,7.70444381865981,0.0735488131112432
7.231839999999999,7.703841310039865,0.0733970372019265
7.23422,7.706032298099254,0.073236299524762
7.236616000000001,7.707664207651203,0.0730987302710938
7.239004,7.712508922763067,0.0729347526982598
7.241383999999999,7.715071997874794,0.0727942221967345
7.243784000000001,7.719916712986659,0.0726306383543547
7.246168,7.72555282403144,0.0724709353073435
7.248548,7.732399639889721,0.0722980996810263
7.250952000000001,7.739386225374862,0.0721209560817464
7.253340000000001,7.749166307539339,0.0719353872103394
7.255719999999999,7.765092461569925,0.0717108706645558
7.258120000000001,7.781949781160292,0.0714845487000449
7.260504,7.796013604071323,0.0712664225090084
7.262884000000001,7.814081628475186,0.0710268113956568
7.265288000000001,7.832568961759631,0.070771985678782
7.267676000000001,7.85357025246969,0.0705207515576653
7.270055999999999,7.876573643926166,0.0702604575164846
7.272452,7.898785639449724,0.069998185106761
7.27484,7.9224878790405,0.0697115935665766
7.277235999999999,7.944747096392303,0.0694149162033898
7.27964,7.972221220050435,0.0690864181411964
7.282027999999999,7.994759976655958,0.0687812200551505
7.284408,8.018369668448118,0.068468724927331
7.286812,8.041979360240276,0.0681583954352443
7.2892,8.067870692032576,0.0678275865721935
7.291580000000001,8.095903894198148,0.0674850255610285
7.293976,8.121934995617305,0.0671545516747052
7.296364,8.14396189554363,0.0668450711002051
7.298748000000001,8.159982493230704,0.0665646918884508
7.301144,8.175351464611719,0.0662767053047912
7.303532,8.186716234499901,0.0660092534509161
7.305912,8.195427277335607,0.065742987571857
7.308307999999999,8.210144622410565,0.0654496072141201
7.310695999999999,8.224070571552604,0.0651550535084648
7.313076,8.239439542933622,0.0648745672891652
7.315475999999999,8.2532257224488,0.0645879888207585
7.317863999999999,8.264218405284645,0.0643082075316827
7.320244,8.274419692187571,0.0640252825170415
7.322640000000001,8.28820587170275,0.0637425482235055
7.325024,8.30120065528501,0.0634569622686268
7.327407999999999,8.307118201441382,0.0632051412075308
7.329804,8.318390423530946,0.0629191658579762
7.332192,8.33101312006087,0.062617722760386
7.334572,8.342704651031015,0.0623190090879209
7.336968,8.353325246814522,0.0620279388809341
7.339355999999999,8.360593267411254,0.0617634753558357
7.341736,8.36972361912754,0.0614969952694771
7.344136,8.382718402709802,0.0612201036331343
7.346524,8.400136696665477,0.060911336803743
7.348904,8.418486156180931,0.0606024622518977
7.351299999999999,8.44018819088316,0.0602705999259427
7.353687999999999,8.462541851891448,0.059947023292339
7.356068,8.478097814727565,0.0596443213453027
7.358476,8.49030120237691,0.0593658871162213
7.36086,8.495195035174886,0.0590923810460033
7.363244000000001,8.504093069465696,0.0588051266448095
7.365644,8.513642730062562,0.0585267684414696
7.368032,8.52533426103271,0.0582368844524397
7.370412000000001,8.532369964203964,0.0579543239592293
7.372808,8.544852891107027,0.0576721255152029
7.375196,8.561200249876064,0.0573804108800269
7.377576,8.576197134204742,0.0571064956879072
7.379976,8.58532748592103,0.0568485328308663
7.382364,8.594318068010457,0.0565959583809667
7.384744,8.603727958980466,0.0563293182067556
7.38714,8.613557158831052,0.0560484731248596
7.389527999999999,8.619941235696249,0.0557619157343261
7.391912,8.62218134144175,0.0554936269033734
7.394308,8.625073073493311,0.0552350083296961
7.396695999999999,8.62810457517173,0.0549725167609784
7.399092,8.626060940170678,0.0547282602856822
7.401488,8.629092441849098,0.0544670462323757
7.403875999999999,8.635988375393492,0.0541980736440395
7.406256,8.642092913004968,0.0539235349910622
7.40866,8.652061882482416,0.0536400943841681
7.411043999999999,8.658818046399949,0.0533746621092524
7.413424,8.664922584011425,0.053100179882829
7.415824,8.672609913488737,0.0528360387061582
7.418212,8.680017703712327,0.0525812759263872
7.420592,8.677834299084415,0.0523414582632798
7.422987999999999,8.677141138523721,0.0520830775045243
7.425376000000001,8.67565658203011,0.0518208293149317
7.427756,8.67868808370853,0.0515605327325351
7.430148,8.680788419827174,0.0513005869712176
7.432536,8.681258742251735,0.0510648348482231
7.434932000000001,8.677445323929744,0.050848762200037
7.437332,8.67400399266009,0.0506508802614757
7.439716,8.672984071017433,0.0504328174837949
7.442100000000001,8.669682509374638,0.0502298106581823
7.444496,8.665310012545206,0.0500321580247993
7.446884,8.661589142021828,0.0498427983822933
7.449264,8.649859868512786,0.0496744822046291
7.451659999999999,8.637059659817107,0.0495111359269887
7.454047999999999,8.6281238829874,0.049341773801943
7.456428,8.619839732463749,0.0491815390927118
7.458824000000001,8.609413711566825,0.0490308162780914
7.461212000000001,8.596706050669761,0.0488940488890319
