Time,Force,Position
7.830487999999999,4.254846618474595,0.1633748617081454
7.832875999999999,4.260339168176778,0.1633639859864813
7.842423999999999,4.30730537989906,0.1632684220773137
7.844819999999999,4.319361414490066,0.1632124399368493
7.847204,4.332907693148291,0.1630847004210158
7.849587999999999,4.349946316620152,0.1628283838376843
7.851984,4.369546119345871,0.1624706780828487
7.854372,4.397154325057257,0.1618880168976379
7.856752,4.429977437074975,0.1611477772508149
7.859147999999999,4.4629403187195535,0.1603895786520063
7.861535999999999,4.496135517789609,0.1596726521833422
7.863932,4.525698602419169,0.1590948382358033
7.866327999999999,4.561500306713457,0.1583864469734753
7.868711999999999,4.602329925858973,0.1575657663265433
7.871091999999999,4.646325128736162,0.156695906102565
7.873491999999999,4.693113828292686,0.1557595322120018
7.875879999999999,4.730870411505148,0.1550417314740323
7.878259999999999,4.765973267665134,0.1544008307910634
7.880656,4.794046108227476,0.1539210957540179
7.883044,4.813366371699474,0.1536171712827943
7.885423999999999,4.832733856999715,0.1532528526795999
7.88782,4.85228833375506,0.1528184470150946
7.890207999999999,4.879479126443735,0.1521471968606804
7.892603999999999,4.906530149505548,0.1514982096399235
7.895,4.933022094059922,0.1509045526238298
7.897387999999999,4.956580772308101,0.1503919291784717
7.899768,4.976135249063446,0.1499860075188369
7.902172,4.991453206900479,0.1496531516331286
7.90456,5.001975567311762,0.1494272672379808
7.906939999999999,5.015710733282959,0.1491156922733985
7.909336,5.031634991455676,0.1486932093806511
7.911723999999999,5.050679507389693,0.148135486477955
7.914107999999999,5.064835878099339,0.1476371351049912
7.916504,5.087187643249757,0.1469024759195963
7.918892,5.111588730974836,0.1460773399663349
7.921272,5.131893069408464,0.1452968430698134
7.923675999999999,5.152337177468951,0.1444920900522918
7.997727999999999,4.8777077965019,0.1440835428372085
8.002512,4.88203686321883,0.144075332283485
8.0049,4.88953151366743,0.1440397137433991
8.00728,4.897026164116031,0.144003747115572
8.009684,4.907641072325929,0.1438348010323507
8.012068,4.918675289416409,0.1436298629292839
8.014448,4.932223463932503,0.1433899786463399
8.016843999999999,4.9492167614339895,0.143103922952811
8.019231999999999,4.966769137442918,0.1427848029375983
8.021628,4.981667786399371,0.1425133512700101
8.024032,5.000802954274135,0.1421898736572849
8.026416,5.026968137746545,0.1417562742611748
8.028796,5.057789149017847,0.1412407247894353
8.0312,5.086235972490394,0.1407509256563596
8.033588,5.104672292230857,0.1404852822346225
8.035964,5.1268332742104334,0.1401539519983341
8.038359999999999,5.15500055842926,0.1396951805932032
8.040744,5.187359035596025,0.1390909478618814
8.043123999999999,5.21617984197878,0.1384915982360148
8.04552,5.238762028696804,0.1379842996511409
8.047903999999999,5.262275380974608,0.1374670098653804
8.050296,5.289001538812328,0.1368798374982381
8.0527,5.314424444037933,0.1362872137903783
8.055083999999999,5.341197823703896,0.1356513795357213
8.057464,5.363407923369586,0.1351377341810845
8.059868,5.38827175008775,0.1345865930199646
8.062256,5.412344180872995,0.1340386587292156
8.064636,5.430317761620373,0.1335713533521793
8.067039999999999,5.438141069008806,0.1333172970905189
8.069424,5.443542966770241,0.1331345331996827
8.071804,5.449876030091454,0.1329392309153138
8.074207999999999,5.4567681719201095,0.1327069345862363
8.076595999999999,5.457701233337757,0.1325403613260117
8.078971999999998,5.46142779143474,0.1323310943449037
8.08138,5.4711606517709725,0.1320029071074137
8.083763999999999,5.477820476174151,0.1317392004900185
8.102879999999999,5.449426562103455,0.1316470680354408
8.105267999999999,5.446959826506084,0.1316172476110375
8.107643999999999,5.443841464602653,0.1315822395952275
8.110047999999999,5.442725203445641,0.131510048184012
8.112435999999999,5.447847561953357,0.1313605939792142
8.114816,5.462840654566297,0.1310331287628571
8.11722,5.479323991246456,0.1306526535442153
8.119608,5.491942896060639,0.1303395657695925
8.121984,5.502792017553885,0.1300992024455009
8.124379999999999,5.517598118711721,0.1298369398984917
8.126764,5.525978608749726,0.1297132519341325
8.129144,5.5340795595340095,0.1296099327759239
8.13154,5.543111675878072,0.1294922686656685
8.133923999999999,5.555309375953809,0.1293570770366886
8.136303999999999,5.573653147895655,0.1291002461953944
8.138708,5.589343192785025,0.1288773600359046
8.141091999999999,5.605173007301256,0.1286521150197385
8.143476,5.6233770096162425,0.1284151986160156
8.145871999999999,5.647447544543619,0.1280811771982545
8.148256,5.67487065465777,0.1276744081709954
8.150652,5.7021539951450615,0.1272788250555996
8.153056,5.7295298834309705,0.1269330021516102
8.155439999999999,5.758209024328995,0.1266000784308159
8.15782,5.789961201160074,0.1262198627169835
8.160224,5.814915679818987,0.1259445277533889
8.162607999999999,5.836005726611925,0.1257311566600277
8.164988,5.8597495004573386,0.1254937637757261
8.167384,5.885355605422308,0.1252322476721249
8.169768,5.911800328148439,0.1249203349283255
8.172148,5.936802028635592,0.1246078392512283
8.174551999999998,5.970371210615856,0.1241329533390005
8.17694,6.00356830554378,0.1236408046095964
8.179319999999999,6.037044939725426,0.1231314384491878
8.181723999999999,6.069637630175537,0.1225889349309963
8.184108,6.102090550998788,0.1220625145177811
8.186492,6.134543471822038,0.1215360941045658
8.188896,6.161921255965816,0.1210966181911776
8.191279999999999,6.187856017870618,0.1206563801117059
8.19366,6.211648909402141,0.1202605009717769
8.196052,6.232508534627471,0.1199100479178381
8.19844,6.25592933910666,0.119501651983793
8.20082,6.272971754294258,0.1191593478612007
8.203216,6.287779751309963,0.1188173723043384
8.205599999999999,6.297512611646196,0.1185560218930202
8.207996,6.311808751982705,0.1182023374217875
8.210391999999999,6.326384431572932,0.1178328714862172
8.212776,6.338306384110685,0.1174899831091671
8.215155999999999,6.350228336648438,0.1171485076223586
8.217552,6.359077253253136,0.1168545763203127
8.21994,6.369928270604251,0.1165337249043572
8.22232,6.375843920902753,0.1162834800532362
8.224724,6.382690736761034,0.1160254919258838
8.227108,6.3888859263132565,0.1157616884557154
8.229488,6.394801576611759,0.115514397348016
8.231883999999999,6.397272103924869,0.1152907912788835
8.234271999999999,6.399370544185642,0.115045466660005
8.236668,6.401236667020936,0.1147695908144676
8.239063999999999,6.403661868363673,0.1144628168866545
8.241448,6.4055752130272126,0.1141429200536591
8.243827999999999,6.405626226571194,0.1138414367950063
8.246232,6.399670937875926,0.1136209895346962
8.248619999999999,6.400653116979686,0.1133100711774963
8.251,6.4017750657103045,0.1129907747210299
8.253404,6.405038884814202,0.1126369929890711
8.255787999999999,6.40816293429124,0.1122929394812678
8.258168,6.411286983768277,0.1119493376254888
8.260575999999999,6.412408932498897,0.1116313767989373
8.26296,6.412227628617401,0.1113011494719709
8.265343999999999,6.415119360668961,0.1109275114595158
8.267736,6.414286430481408,0.1105910131905547
8.270124,6.407307428427743,0.1103389267584605
8.272504,6.396044685627524,0.1101552891039511
8.274908,6.385293799506504,0.1099854799979487
8.277296,6.372261273385346,0.1098576240188944
8.279672,6.360531999876304,0.109742328984285
8.282064,6.349174813419599,0.1096487524994218
8.284448,6.340052045134788,0.1095583427109844
8.286843999999999,6.331161594275456,0.1094975072021585
8.289247999999999,6.320129273042844,0.1094705037857841
8.291632,6.313101153303067,0.1093906684889329
8.294011999999999,6.309006299869486,0.1092751242777131
8.296415999999999,6.300767475316212,0.1092196343391144
8.298803999999999,6.293971673001912,0.1091692548747261
8.301179999999999,6.287315640314474,0.1091106810868402
8.315512,6.237924227249456,0.1091104258470506
8.317915999999999,6.2355972612789445,0.1090676246969116
8.3203,6.23569170493543,0.108974980860253
8.32268,6.236065687845636,0.1088665742572261
8.325083999999999,6.240583641875538,0.108698451139456
8.327468,6.2463123007189365,0.10850588149431
8.329848,6.252040959562337,0.1083133118491641
8.332251999999999,6.25576751765932,0.1081465192348592
8.334639999999998,6.258702679823385,0.1079811980680687
8.337019999999999,6.261358302733728,0.1078305735692462
8.339416,6.263734386390351,0.1076969818197699
8.341804,6.268624427472589,0.1075534295861567
8.344183999999998,6.272583302995049,0.1074179082310729
8.34658,6.278823818517647,0.1072428147383659
8.348968,6.279709658107051,0.1071499001124222
8.353752,6.271191294300055,0.1071071834357992
8.35614,6.268724558702684,0.1070718438194134
8.358519999999999,6.271332959784785,0.1069689530153124
8.360916,6.277154166426802,0.106816530182366
8.363299999999999,6.289773071240985,0.1065893901309275
8.36568,6.302531745682032,0.1063575738179407
8.368084,6.313939945682718,0.1061574523420688
8.370467999999999,6.327210476802959,0.1059422094162668
8.372848,6.337407971990147,0.1057681018595851
8.375243999999999,6.346814071244417,0.1055954830878483
8.377632,6.357710414565904,0.1053852701426131
8.380028,6.371167937141251,0.1051213573789684
8.382423999999999,6.384765229343459,0.1048505135666724
8.384808,6.403437658225136,0.1045173660454596
8.387191999999999,6.418385424867704,0.104217019492772
8.389588,6.4298880685248765,0.1039352341409318
8.391971999999999,6.446605618488381,0.1035852466323739
8.394352,6.459318966959053,0.1032839089028061
8.396756,6.479109552855612,0.1028972075993957
8.399144,6.503183879498727,0.1024480169580952
8.401524,6.533544047634813,0.1019143332570836
8.403924,6.5611107190915625,0.1014092347532796
8.406312,6.586023663495839,0.1009248938985629
8.408691999999999,6.610005442340336,0.1004525210488933
8.411088,6.628260458199304,0.1000371850744178
8.413476,6.6433026684983565,0.0996671547148988
8.415856,6.6635597851037405,0.0992353262180659
8.41826,6.683956671335985,0.0988011331513726
8.420644,6.707566363128145,0.0983262248182667
8.423024,6.734249090853361,0.0978212056456244
8.425419999999999,6.761583444884635,0.0973286439728054
8.427807999999999,6.787427554848689,0.096873334736648
8.430188,6.816344700745797,0.0963890422141933
8.432587999999999,6.843399515523351,0.0959229972598992
8.434972,6.874318762166878,0.0954253039680542
8.437368,6.906308943997042,0.0949153636127961
8.439772,6.934155154707513,0.0944554523017934
8.442155999999999,6.961070199858205,0.0940000117761201
8.444536,6.985191748329562,0.0935673591348948
8.446931999999999,7.009033757547201,0.0931512150438972
8.44932,7.0307338963915615,0.0927650327240822
8.451696,7.0524340352359225,0.0923799954742613
8.454104,7.073854634826562,0.0920095711929087
8.456487999999998,7.095135464790341,0.0916480325088901
8.458867999999999,7.117859316993097,0.0912950614648185
8.46126,7.143795974755768,0.0909059263956273
8.463648,7.164377956585247,0.0905821378237581
8.466044,7.184540629534144,0.0902812713183533
8.468447999999999,7.200559331363348,0.0900235446203642
8.470832,7.212154522819137,0.08982250146833
8.473215999999999,7.220397139088151,0.0896647172770324
8.47562,7.226777424237608,0.0895175858334328
8.478003999999999,7.230736299760068,0.0894088310597736
8.480383999999999,7.233764009722749,0.089305920082731
8.482788,7.234789618939013,0.0892207093894673
8.485171999999999,7.235256149647837,0.0891614153233784
8.487551999999999,7.238516177035995,0.0890862219970305
8.489956,7.246432032223047,0.0889847059332964
8.492344,7.255279052969874,0.0888784791026684
8.494724,7.265057239276482,0.0887678464850212
8.497128,7.273904260023313,0.0886628051797062
8.499512,7.28233197188956,0.0885769735833859
8.501895999999999,7.289548978942311,0.0885089022000553
8.504292,7.295834820435282,0.0884462583536645
8.50668,7.301469035622194,0.0883761506433059
8.50906,7.305892545995609,0.0883243620007936
8.511455999999999,7.310595595622742,0.0882597063478555
8.513843999999999,7.309571882264347,0.0882317799159848
8.516224,7.312412600771925,0.0881770954465902
8.518619999999999,7.315532858533224,0.0881094849920093
8.521008,7.3222852307350195,0.087988615425868
8.523387999999999,7.333972969989426,0.0878300719055848
8.525792,7.341796277377861,0.0876976139051278
8.528179999999999,7.350410980699211,0.0875669470623038
8.53056,7.359817079953481,0.0874379036427202
8.532964,7.368571552901692,0.0873009881036924
8.535352,7.377326025849903,0.0871652077544973
8.537732,7.387151433984752,0.0870202141737498
8.540128,7.396976842119603,0.0868761483337728
8.542515999999999,7.408292494321673,0.0867046087222902
8.544896,7.42053931208352,0.0865289248726697
8.547291999999999,7.43706987059192,0.086311781145136
8.549679999999999,7.457884169846878,0.0860530348399995
8.552059999999999,7.479909173915332,0.0857789012892646
8.554456,7.503144882797285,0.0854895251857334
8.556844,7.526380591679239,0.0852016032764669
8.559228,7.551897940561328,0.0848879345865959
8.561624,7.582630195749751,0.0845267368055751
8.564008,7.612710824632115,0.0841609874234485
8.566388,7.648006359820815,0.0837533724786411
8.568792,7.681020255009376,0.0833752617037329
8.57118,7.710589027212543,0.0830052497024806
8.573559999999999,7.742718978669568,0.0825955347428858
8.575959999999998,7.775128469380315,0.0821765880000914
8.578344,7.803301441172749,0.0817595466622482
8.580724,7.829751851472488,0.0813431284601951
8.583127999999999,7.855038778786971,0.0809084844230451
8.585516,7.871945216063448,0.0805108459326171
8.587895999999999,7.885918387033731,0.0801312892902234
8.590292,7.896818522070958,0.0797783222293705
8.59268,7.908417505242484,0.0793980652833271
8.595063999999999,7.914429495055343,0.0790425646555234
8.59746,7.917787757815727,0.078694535328927
8.599844,7.918212754269914,0.0783633412754112
8.602224,7.918777520350964,0.0780276190449065
8.604628,7.919109969006535,0.0776676354226616
8.607012,7.918231712848606,0.0773233970859488
8.609392,7.9176329959444,0.076969035226025
8.611796,7.915032178293777,0.0766274040254906
8.61418,7.904422957657486,0.0763353492709685
8.61656,7.89143954922244,0.0760352220197512
8.618967999999999,7.878176601533674,0.0757456012254637
8.621352,7.865425510524107,0.0754692226403812
8.623731999999999,7.85174325395476,0.0751960746020558
8.626128,7.84578986111736,0.0748860118232957
8.628516,7.846634166452128,0.074543350706009
8.630896,7.84491729253304,0.0742345830724169
8.633291999999999,7.847996016039703,0.0739031987417457
8.635676,7.852285444359865,0.0735565358146471
8.638072,7.855224398239668,0.0732297590163304
8.640467999999998,7.855602172865613,0.0729377717760231
8.642856,7.858913213797753,0.0726312873951809
8.645235999999999,7.863946816222589,0.0723258970462611
8.647632,7.873636246446319,0.0720068859075819
8.650015999999999,7.880112871110131,0.0717133952718933
8.6524,7.885750878012782,0.071453968877602
8.654796,7.89339098566185,0.0711845583179552
8.657183999999999,7.900472014803477,0.0709385538873479
8.659576,7.909555144691522,0.0706821643696434
8.66198,7.926227368684653,0.0703994114669214
8.664363999999999,7.946204946036317,0.0701227647421968
8.666744,7.968044854507537,0.0698416559696875
8.669148,7.992166402978895,0.0695407333526724
8.671532,8.013214915517198,0.0692580687671202
8.673912,8.030910852868724,0.0690077941604829
8.676316,8.044602588727418,0.0687803353943924
8.6787,8.059225490145888,0.0685498182622808
8.68108,8.077573053803473,0.0683119548004346
8.683484,8.097643178953755,0.0680756569007522
8.685872,8.117061677797977,0.0678302293788172
8.688251999999999,8.1364801766422,0.0675844691971017
8.690648,8.152546100299649,0.0673676121425263
8.693036,8.161674556158067,0.067182601868194
8.695416,8.164284853098035,0.0670135615749407
8.697811999999999,8.169968185971062,0.0668269405500551
8.700199999999999,8.175931058097808,0.0666296215493835
8.70258,8.17788972873172,0.0664522232022222
8.704984,8.180267708246213,0.066259296754833
8.707372,8.181854291827788,0.0660636778710008
8.709752,8.177993651677552,0.0658757545995325
8.712148,8.175483485967677,0.0656705132226719
8.714535999999999,8.17311308988466,0.0654605247200712
8.716916,8.16766965786859,0.0652672387159951
8.719316,8.168092758464908,0.0650519715472591
8.721699999999998,8.165722362381892,0.0648422294526421
8.724079999999999,8.16228103111224,0.0646394730559161
8.726479999999999,8.16191273577564,0.0644209065338154
8.728864,8.154746742266873,0.0642259802802381
8.731259999999999,8.145578648011687,0.0640398628379047
8.733656,8.139343820062699,0.0638428557414469
8.736044,8.134319696927207,0.0636333797055979
8.738427999999999,8.133299775284549,0.0634064651034613
8.740824,8.140148487000701,0.0631495136732526
8.743212,8.151513256888881,0.0628884928535149
8.745591999999998,8.161667321963565,0.0626404593653603
8.747988,8.171821387038246,0.0623928546347566
8.750376,8.181835682486069,0.0621494055608863
8.752756,8.190499503493536,0.0619241751001491
8.755156,8.19753331080692,0.0617268221046813
8.757544,8.207220845172781,0.0615300402049264
8.759924,8.216628840284917,0.0613452121907497
8.762315999999998,8.226828231329973,0.061165179055873
8.764704,8.240892054241005,0.0609749719950469
8.7671,8.252674237151897,0.0608043686652628
8.769496,8.27018318304832,0.0606208130781638
8.77188,8.291696330437578,0.0604224781714928
8.77426,8.310927837826698,0.0602431436118416
8.776663999999998,8.33402377708179,0.0600532370707938
8.779052,8.361123917829715,0.0598490113826706
8.781431999999999,8.387804749697061,0.059661080558366
8.783835999999999,8.414997438243608,0.0594878100038768
8.786223999999999,8.44219012679015,0.0593162239739199
8.788604,8.466170009776778,0.0591645631609378
8.791008,8.491360597576907,0.0590030197209837
8.793391999999999,8.517622120563674,0.0588360620746509
8.795776,8.542533169110081,0.0586851334464098
8.798172,8.572379584709099,0.0585189932893859
8.800555999999998,8.601946461054396,0.0583627636215931
8.802935999999999,8.632724042213193,0.0581952292534292
8.805332,8.66308231449141,0.0580431931030849
8.807716,8.689296615649933,0.05791080747207
8.810099999999998,8.714439981621817,0.0577855212544685
8.812496,8.735159837220285,0.0576897398820709
8.814884,8.755228066512696,0.0575856555366139
8.817264,8.770640468006219,0.0574878546234367
8.819656,8.78484216468624,0.0574017959420417
8.822044,8.798904091739399,0.0573204882807643
8.82444,8.812546709911981,0.0572539719810374
8.826836,8.8260495584577,0.057193189156987
8.829224,8.838761011070503,0.0571287678911921
8.831603999999999,8.852683168496803,0.0570542484117711
8.834,8.866605325923103,0.0569804455096187
8.836388,8.883740288909319,0.0568902529951498
8.838768,8.897802215962482,0.0568127013846444
8.841164,8.909862042269227,0.0567418756100882
8.843548,8.924343278202969,0.0566506478455245
8.845944,8.93910405339043,0.0565512773201078
8.848339999999999,8.953632511152414,0.0564295635687395
8.850728,8.971373774474314,0.0562924330653765
8.853107999999999,8.987951554810959,0.0561339991327398
8.8555,9.006810975147742,0.055959825019548
8.857887999999999,9.02222527249913,0.05577949249345
8.860284,9.037267482798182,0.0555806608867352
8.86268,9.04858503085812,0.0553843887990673
8.865067999999999,9.057248851865584,0.0551849925847787
8.867448,9.061536384327876,0.0549798527873029
