Time,Force,Position
9.827784,4.184444127181215,0.1627008915474842
9.830188,4.195850431324032,0.1624568685798902
9.832572,4.205114865093573,0.1622881739355704
9.834952,4.215450234049751,0.1620850696189802
9.83736,4.228207012632927,0.1617755568840989
9.839748,4.236959589723269,0.1615917365407458
9.842128,4.252929173866361,0.1611905223904122
9.844524,4.276348082487679,0.1606121766971266
9.846912,4.311919365214359,0.1596819072580992
9.849296,4.352286245366791,0.1586307319639339
9.851692,4.39959059331825,0.1573949159338248
9.85408,4.447546567575769,0.1561496444816798
9.856459999999998,4.496433707393065,0.1549298049320793
9.858856,4.542387580904166,0.1538033617170535
9.861244,4.5871779714300125,0.1526458556431486
9.863623999999998,4.624519037477631,0.1516627224031893
9.866024,4.657064506099498,0.1507976703676375
9.868412,4.693334636960478,0.1498480918003593
9.870791999999998,4.734679904500932,0.1487614492970088
9.873192,4.770997257190156,0.1477704442733875
9.87558,4.7937192135350415,0.1471280346621502
9.877959999999998,4.813507903573733,0.1465594640143758
9.880356,4.833948219918482,0.1459933443951396
9.882744,4.856250867382788,0.1453975367814205
9.885127999999998,4.882557716339927,0.1447022512775961
9.887524,4.907793630110429,0.1440339345392516
9.889916,4.926324393507378,0.1435933258854418
9.892295999999998,4.946437948770163,0.143156540731074
9.894692,4.958822640301002,0.1429003471494858
9.897075999999998,4.9649687121671136,0.1427485827916328
9.899452,4.965388021047693,0.1427159693856899
9.901856,4.97474689847372,0.1424869714645656
9.904239999999998,4.980101574406912,0.1423505206259882
9.90662,4.985223932914628,0.1421785441990662
9.909024,4.997516076646848,0.141897524321062
9.911407999999998,5.013253343364463,0.1415661397444054
9.913799999999998,5.03965274012022,0.1410287014417049
9.916192,5.06540051056992,0.1404945294837462
9.91858,5.086352683593866,0.1400560486997377
9.92096,5.108188800349349,0.1396561003386971
9.92336,5.143061234941727,0.1390324512935618
9.925743999999998,5.183380893265914,0.1383269864249607
9.928124,5.228263831590378,0.1375121634943723
9.93052,5.270353273235505,0.1367565688814492
9.932904,5.304526859693582,0.1362022479077534
9.935296,5.342425108390773,0.1355861056234952
9.937691999999998,5.377669630035489,0.1349973760670055
9.992648,5.579596403977774,0.1349865538513979
9.995044,5.5866264195754205,0.1349035574911208
9.997428,5.591841325881754,0.1347955724481224
9.999807999999998,5.596264836255168,0.1346921359517119
10.002199999999998,5.602410908121279,0.1345704016887678
10.004587999999998,5.612700951107084,0.1343641279078751
10.00698,5.622386589615074,0.1341042340378981
10.009384,5.636216199242757,0.1337628374062747
10.011768,5.647484629616582,0.1334960951678477
10.014148,5.661826095923464,0.1331698207718025
10.016552,5.679659907043983,0.1327597230658434
10.01894,5.69763348779136,0.1323408377877943
10.02132,5.717748938912014,0.1318756267423609
10.023724,5.737305311525228,0.1314457002576842
10.026108,5.760633568205799,0.1309052228114662
10.028488,5.781867176341335,0.1303729309369867
10.030884,5.798864265558561,0.1298803297056545
10.033268,5.812648549215871,0.1294558493543536
10.035647999999998,5.8232200273132655,0.1291002541509765
10.038044,5.82941521686549,0.1287906303583928
10.040428,5.833375988245819,0.1284858925393832
10.042824,5.8349625718273925,0.1281944175457199
10.04522,5.842927544700556,0.1278209371042368
10.047608,5.850752747946859,0.1274551758753624
10.049988,5.8543414322748495,0.1271270771581326
10.052384,5.857418259923644,0.1267873321182977
10.054772,5.85835321719916,0.1264918654747777
10.057147999999998,5.853980720369727,0.1262549365736439
10.10974,5.511051388314765,0.1260120651150209
10.112123999999998,5.507513717530755,0.1260022895778193
10.114504,5.507700708985858,0.125940941957232
10.1169,5.509750031560519,0.1258546192924416
10.119288,5.520319613800044,0.1256441999107077
10.121668,5.533962231972625,0.1253789567365593
10.12406,5.548815554958703,0.1250818535620597
10.126448,5.5628774820118645,0.1247893534844921
10.128828,5.574006142758831,0.1245466136379218
10.131224,5.586065969065575,0.1242912519951912
10.133612,5.59705486018568,0.124060036209576
10.136008,5.608183520932646,0.1238195314462134
10.138404,5.620243347239391,0.1235674049387653
10.140792,5.643105073211137,0.1231461099226775
10.143172,5.663685159182745,0.1227775986113799
10.145575999999998,5.681983605154218,0.1224626063494726
10.147963999999998,5.706567892618661,0.1220298174068428
10.15034,5.732223115269743,0.1215822904872536
10.152736,5.762301848294239,0.121043057832338
10.15512,5.799737357998344,0.120377245102753
10.1575,5.8300956302765625,0.1198274411539471
10.159896,5.861524837741417,0.1192707608757134
10.16228,5.892442188527073,0.1187026611798739
10.164672,5.91777254595406,0.1182033713019403
10.167075999999998,5.939518010768794,0.1177462297381928
10.169464,5.960052770770029,0.117321992330697
10.171844,5.978445660397988,0.1169346016117756
10.174248,5.998840650772363,0.1165200331548272
10.176631999999998,6.019095871519879,0.1161143400166311
10.179012,6.041353193013811,0.1156819497450862
10.181408,6.062679348947963,0.1152620861008311
10.183792,6.085216209695616,0.1148166738556515
10.186172,6.108172379323849,0.1143495961738082
10.188576,6.121677123727439,0.1139981921894507
10.19096,6.139325839250722,0.1135836033233412
10.193344,6.158325029214365,0.1131353997542513
10.195744,6.174810261752393,0.1127058720407789
10.198132,6.186871983917007,0.1123572560347686
10.200512,6.193718799775287,0.1120906963578078
10.202912,6.19348837820768,0.111927543121922
10.2053,6.196470762199986,0.1117090753937206
10.20768,6.194378009512822,0.1115649633155796
10.210083999999998,6.191865947945076,0.1114451326536327
10.212471999999998,6.191216217496889,0.1113051707915235
10.214848,6.192568587795117,0.1111383464156174
10.217244,6.196062828466622,0.110937839634812
10.219628,6.203980579511541,0.1106598010113773
10.222024,6.210035999436904,0.1104021439031075
10.22442,6.217441893802627,0.1101122767604688
10.226807999999998,6.219912421115737,0.1098843556940242
10.229188,6.222382948428845,0.109656599822994
10.231583999999998,6.2229911446224,0.1094475042329693
10.233968,6.221177931188956,0.109288469467273
10.236348,6.227465668539796,0.109063718558672
10.238744,6.231611535517359,0.1088746849975268
10.241132,6.233755301748505,0.108711515977271
10.243528,6.237202320591766,0.1085627069045341
10.245932,6.241720274621668,0.1083961386511026
10.248316,6.253175696450597,0.108144495734266
10.250696,6.265841823093025,0.1078681964110607
10.2531,6.283303547161205,0.1075427255110297
10.255484,6.3018362064160245,0.1072002498241579
10.257867999999998,6.320508635297702,0.1068502911542344
10.260264,6.342905726418493,0.10646769368391
10.262648,6.363952343098927,0.1061204555812944
10.265031999999998,6.379364744592447,0.1058703228931992
10.267428,6.391796657951528,0.1056996169834465
10.269811999999998,6.403529723176309,0.1055670452208562
10.272192,6.414424170639927,0.1054809920236103
10.274588,6.432767942581774,0.1053282322068946
10.276979999999998,6.451623571202818,0.1051901034116074
10.27936,6.473644783555534,0.1050497766824593
10.281764,6.498739031841306,0.1048697784090004
10.284147999999998,6.518106517141548,0.1047487914703432
10.286528,6.537985859120988,0.1046430804388318
10.288923999999998,6.562381259272458,0.1045057158655674
10.310424,6.714374604363108,0.1044664117085077
10.312808,6.738023934552035,0.1044173709466896
10.315204,6.763582817688761,0.1043104967197827
10.317608,6.791702880079344,0.1041531438397869
10.319992,6.816797128365116,0.1039891346405242
10.322371999999998,6.840308584785052,0.1038304928608126
10.324776,6.866381220458844,0.1036239860601988
10.327164,6.888077567587465,0.103440312791589
10.329539999999998,6.908051353223391,0.1032659903999696
10.331944,6.930306778859454,0.1030562819103822
10.334328,6.952190117443178,0.1028274774094315
10.336707999999998,6.9696971674817325,0.1026227686947155
10.339112,6.994421224573037,0.102334121100784
10.3415,7.020775295358419,0.1020088154552277
10.34388,7.048899149464741,0.1016367953887646
10.34628,7.077302542824784,0.1012517862310873
10.348668,7.109897129132764,0.1007799989209817
10.351048,7.14067660614943,0.1002833409858644
10.353452,7.16428629794159,0.0998263079306491
10.355836,7.184730406002078,0.0993706840427085
10.358216,7.204570109584751,0.0988706339121886
10.36062,7.216680949435477,0.0984406053385501
10.363004,7.227069227793507,0.098018380882926
10.365384,7.236945649472338,0.0975857913271151
10.367788,7.253759538950199,0.0970906252023007
10.370176,7.261122003203415,0.0966636864307638
10.372556,7.263828639657741,0.0962698107792008
10.374959999999998,7.270167390552563,0.0958174288577957
10.377348,7.275714745514467,0.0953647433020998
10.379728,7.2787481430507555,0.0949175790089819
10.382132,7.278476187228512,0.0944747259016533
10.384519999999998,7.275550504353794,0.0940412755195839
10.3869,7.267177597747266,0.0936390853931128
10.389304,7.256942360021182,0.0932505165361323
10.391687999999998,7.24484479117554,0.0928734574482018
10.394068,7.235028862330036,0.0924659665495634
10.396472,7.222651754230674,0.0921028034874096
10.398856,7.209063941317813,0.0917567241868837
10.401236,7.201761969897926,0.0913430110699556
10.403631999999998,7.197113725530512,0.0909188147261043
10.406019999999998,7.189624762655519,0.0905502182635745
10.4084,7.183066965340305,0.0901740127191919
10.410796,7.178091959890926,0.0897999549279562
10.41318,7.170835314441412,0.0894563483972776
10.41556,7.158503532312423,0.0891596986517429
10.417956,7.156973649848438,0.0887779636664165
10.420344,7.15623516331737,0.0883962703746911
10.422724,7.154146202345944,0.0880401582931815
10.425128,7.152848637307436,0.0876851364667696
10.427516,7.1520629289481255,0.0873432520016417
10.429896,7.150438602827652,0.0870379349064466
10.432299999999998,7.152119630065714,0.0867299235276527
10.434684,7.153241578796335,0.0864467615526321
10.437064,7.148869081966903,0.0862283047450703
10.439467999999998,7.147150312189945,0.0860012186428925
10.441856,7.141008032039571,0.0858273325076998
10.444236,7.134865751889199,0.0856533574361562
10.44664,7.130306263604663,0.0854818820448359
10.449027999999998,7.125187696812686,0.0853366862567792
10.451408,7.121791691513406,0.0851887549646661
10.453803999999998,7.119466621400763,0.0850289670944726
10.456191999999998,7.121145752780954,0.0848370411423684
10.458572,7.120822783414729,0.0846613107934058
10.460968,7.121430979608284,0.0844807071266442
10.463356,7.122690802107894,0.0843080710320335
10.465736,7.115383143114398,0.0842250223719477
10.468132,7.10779594486718,0.0841546641492223
10.47052,7.0977873369929645,0.0841195058549815
10.472896,7.0884303554248085,0.0840923405681059
10.4753,7.0815873312822655,0.0840638920493647
10.477684,7.081030148632694,0.0839749656579697
10.480068,7.083685771543037,0.0838533351628072
10.482468,7.092347696692632,0.0836856126639179
10.484856,7.10594498889484,0.083481173101334
10.487236,7.119402511470187,0.0832852951787597
10.48964,7.132720264418673,0.0830942952551157
10.492024,7.146689643673216,0.082912153424078
10.494404,7.160379483674039,0.0827427771550274
10.496807999999998,7.179656317033532,0.0825498757822582
10.499196,7.192926848153776,0.0824025692607685
10.501576,7.208851106326493,0.0822487838364119
10.503972,7.221143250058713,0.0821463482293072
10.50636,7.237299825656907,0.0820211951175487
10.50874,7.251034991628106,0.0819292634736062
10.511143999999998,7.265980862412803,0.0818209921052713
10.513528,7.289354445063747,0.0816346782370888
10.515912,7.314869898087968,0.081427745645664
10.518304,7.343458387045245,0.0811949429280849
10.520692,7.371115710442743,0.0809669076060748
10.523072,7.397330011601266,0.0807298955634518
10.525468,7.419260572013235,0.0805365058769787
10.527856,7.437838557238428,0.0803818028943943
10.530236,7.454274672090343,0.0802499287550901
10.532632,7.471641952502037,0.0801151272778252
10.53502,7.482723391420759,0.0800342950628059
10.537416,7.498879967018954,0.0799154194151639
10.539815999999998,7.511963506684094,0.0798203112310328
10.542203999999998,7.5242556504163165,0.0797228340599774
10.544584,7.524954498550616,0.0796923978702696
10.546983999999998,7.5295177785508915,0.0796395580746995
10.549368,7.531567101125552,0.0795867880350678
10.551748,7.533104567021013,0.0795194584319069
10.554151999999998,7.5306378314236415,0.079480662607472
10.556539999999998,7.530452735826409,0.0794153470875511
10.566088,7.497259432614223,0.0793971512348811
10.568488,7.492138969964377,0.0793639001109751
10.570875999999998,7.489160377687807,0.0793109873032507
10.573256,7.492188087650489,0.0792181907647527
10.57566,7.496706041680389,0.0790982135957316
10.578043999999998,7.495497232724761,0.0790060362829272
10.580424,7.491494927089795,0.0789249722677708
10.582824,7.494849398134439,0.0787824953087885
10.585207999999998,7.496341538059529,0.0786482003991378
10.587592,7.501465792425113,0.0784676035446563
10.589987999999998,7.51180495309703,0.0782468143715278
10.592375999999998,7.528150416008198,0.0779856922262593
10.594756,7.5427733174266685,0.0777259959424515
10.597152,7.561260650711114,0.07744791238673
10.59954,7.587476847727505,0.077132891685538
10.60192,7.614112353624478,0.0768000947557523
10.604323999999998,7.642749960267867,0.0764564442666312
10.606711999999998,7.678045495456565,0.0760845209870316
10.609092,7.713620569898982,0.0757016316517242
10.611488,7.754131011394011,0.0752915198450091
10.613872,7.791708186582846,0.0749003216820267
10.616256,7.822068354718932,0.0745626468294177
10.618652,7.85000711322802,0.0742565710409094
10.62104,7.873010504684497,0.0739810849459141
10.62342,7.894942960954335,0.0737158687013987
10.625816,7.920460309836424,0.0734419272136632
10.628204,7.9442550972258195,0.0731675711192454
10.630596,7.967118719055434,0.0728997200428329
10.632996,7.987049074578856,0.0726469533493118
10.63538,8.006560121221694,0.0724128175788919
10.63776,8.024208836744979,0.0721880112199796
10.640156,8.040926386708483,0.071967054927098
10.642544,8.058854641485487,0.0717324134256066
10.644924,8.07184752920988,0.0715239475105749
10.647327999999998,8.077251322829184,0.0713447481931236
10.649715999999998,8.085308843500965,0.0711635035937575
10.652096,8.091643802680048,0.0709830032496404
10.654492,8.095325034806656,0.0708063559127352
10.65688,8.099006266933264,0.0706299288482478
10.65926,8.102175642380676,0.0704413012028794
10.661663999999998,8.102691290775612,0.0702542237381885
10.664048,8.106559514357324,0.070037464946654
10.666432,8.10991588125984,0.0698068833021332
10.668828,8.110338981856156,0.0695884235691655
10.671216,8.110901852079337,0.0693647486918479
10.673596,8.113374275250317,0.0691013149847471
10.675992,8.120502526220188,0.0688258391394561
10.678376,8.123766345324084,0.0685656830809759
10.680772,8.128892495547538,0.0683003230679449
10.683167999999998,8.133506789091793,0.0680218451384679
10.685555999999998,8.130904075583299,0.067785809432809
10.687936,8.129372297261447,0.0675424959044454
10.690331999999998,8.129982389312868,0.0672848459204249
10.69272,8.133805286924206,0.0670045167074186
10.6951,8.139490515655101,0.0667194698930652
10.697496,8.143592952520159,0.0664292014976789
10.699884,8.145553519011942,0.0661534514157318
10.702279999999998,8.146303380690224,0.0658909910019551
10.704676,8.147193011995368,0.0656234623296722
10.707064,8.145801003300372,0.0653767594039545
10.709447999999998,8.14920459203113,0.0651148453850834
10.711844,8.153679115948526,0.0648465160891901
10.714228,8.160947136545259,0.0645733216534183
10.716608,8.171427962701904,0.0642780057451937
10.719008,8.183771119978108,0.0639804528355099
10.721396,8.196765903560369,0.0636939347502308
10.723776,8.212973492702545,0.0633902173931214
10.72618,8.22918108184472,0.063085614530835
10.728564,8.246739145427256,0.0627650195655324
10.730944,8.266159540129351,0.0624433157919389
10.733339999999998,8.29186577632441,0.062085206324262
10.735727999999998,8.318642947706111,0.0617232909394465
10.738104,8.345140579834094,0.0613751336069808
10.7405,8.370287737521718,0.0610451704233648
10.742888,8.39450372964956,0.0607170539068964
10.745283999999998,8.418440182523685,0.0604002625170918
10.74768,8.44866247689078,0.0600523074456549
10.750068,8.477162209765178,0.0597018389857567
10.752448,8.506872647453074,0.0593422681914884
10.754844,8.536722854767833,0.0589788536963861
10.757228,8.56578166614967,0.0586146354993813
10.759608,8.591767441598456,0.0582648865708224
10.762007999999998,8.616030655554544,0.0579147420084237
10.764392,8.640573408764352,0.0575562804901097
10.766787999999998,8.662182895667964,0.057207356876136
10.769184,8.6816505121983,0.0568721932605981
10.771572,8.693389264996688,0.0565566266036062
10.773952,8.707130118541492,0.0562341690161839
10.776352,8.71872910171302,0.0559240706415361
10.77874,8.727255048951493,0.055627356613037
10.78112,8.736712161749745,0.0553315653726304
10.783516,8.740162972308745,0.0550549190999374
10.785904,8.73946981174805,0.0547960720093815
10.788284,8.740127125627717,0.0545224826955364
10.790679999999998,8.740924209134242,0.054243720350662
10.793064,8.743723393387185,0.0539596049145432
10.79546,8.740516275400877,0.0536948588225694
10.797864,8.740382193347624,0.0534185866796998
10.800252,8.73489343536118,0.053168523693633
10.802632,8.727402576628318,0.0529239002160935
10.805028,8.71669891233554,0.0526949810665401
10.807412,8.707857579162319,0.0524644540411435
10.809796,8.699667872295155,0.0522431587912893
10.812192,8.689987921360775,0.0520411147967694
10.814576,8.678305869679974,0.0518438398683405
