Time,Force,Position
9.952844,4.056667468732526,0.1597494761773599
9.955224,4.1198336861655065,0.1593786231594109
9.957624,4.165821510499765,0.1593609678570094
9.960012,4.205013532519727,0.1593524914952185
9.962392,4.240530009986686,0.1591541898889349
9.99824,4.250026761181703,0.1590119409872764
10.000632,4.259476290548477,0.158953426765579
10.003016,4.266411862489636,0.1589397006841867
10.005396,4.277398857751872,0.1587375324345208
10.007792000000002,4.290947032267968,0.1584311274407152
10.010176,4.307196155664778,0.1580134845380117
10.012568000000002,4.321303408688316,0.1576686447810392
10.014960000000002,4.332058086525074,0.157437283327506
10.017348000000002,4.339879498055638,0.1572833976929433
10.019744,4.3523095155568505,0.1570856349002916
10.022136,4.372560944588627,0.1567329293331304
10.02452,4.403846590710884,0.1561210276373409
10.0269,4.437506424631893,0.1554852953128589
10.029304,4.464368560380737,0.1550442455422569
10.031692,4.492581170569937,0.1545415274934131
10.034072000000002,4.523215190386134,0.153945952727131
10.036464,4.556410389456191,0.1532548663085463
10.038852,4.591654911100906,0.1524555379410936
10.041244,4.626155258640948,0.1516105940665145
10.043648,4.656419087262678,0.1508276903623222
10.046036,4.680536844018297,0.150234710396909
10.048416,4.708239493386169,0.1495909077920804
10.050820000000002,4.738595869806517,0.1489014744119065
10.053204,4.766530836599865,0.148301186879649
10.055584,4.791764854512498,0.1478219195579911
10.057988000000002,4.809734643544138,0.1475991537382069
10.060372,4.829566763695333,0.1473387957268515
10.062752,4.854753559779721,0.1469225302498511
10.065156000000002,4.884084326983803,0.1463897025903245
10.067544000000002,4.909597884150156,0.1458948594750387
10.069924,4.937020994264307,0.145321212315
10.072324000000002,4.958345254340592,0.1448553604432043
10.074712000000002,4.976643700312064,0.144410143366529
10.077088,4.994430289604338,0.1439460986793762
10.079492000000002,5.013008274829531,0.1434778701842401
10.081876,5.03451952636092,0.1429570480007403
10.084256,5.053097511586112,0.142506069719382
10.086660000000002,5.067112216811029,0.1421902861219521
10.089044,5.081079700207704,0.141933944446503
10.091424,5.102216968828886,0.1415623742344471
10.093828000000002,5.128848683010119,0.14105039742274
10.096216000000002,5.151523417526762,0.1405841893639094
10.098592,5.171963733871511,0.1401292281621666
10.100996000000002,5.191612654283341,0.1396753902815078
10.10338,5.210889487642835,0.139198907256726
10.10576,5.23864125469682,0.1384691485631682
10.108164,5.2617844157801565,0.1377641896713319
10.198936,5.205187370809607,0.1371886675197547
10.201332,5.208213184914419,0.1371780474661234
10.20372,5.212449703832728,0.1371325497720891
10.206096,5.220318337191535,0.1369835120014705
10.208496,5.226324639430786,0.1368663865608197
10.21088,5.238057704655568,0.1366509921678098
10.21328,5.255889619918216,0.1363593707611839
10.215676000000002,5.280519233353033,0.1359395823994334
10.218064000000002,5.30570792529529,0.1354800704622039
10.220444,5.331036386864408,0.1350124049416629
10.22284,5.357156244366444,0.1345386869649713
10.225224,5.381693310002643,0.134085188567952
10.227604,5.41056133821364,0.1334858665571735
10.229996,5.439616357879741,0.1328250961684412
10.232384,5.469929304187583,0.132085815159768
10.234776,5.501452955308924,0.1313165364500493
10.237172,5.534606620124346,0.1304940122666398
10.239556,5.569390298633847,0.1296191789567635
10.241948,5.601380480464011,0.1287955455791092
10.244344000000002,5.633091123040456,0.12799363304941
10.246732000000002,5.661309420803263,0.1272830366512983
10.249112,5.684173042632878,0.1266850727374722
10.251512000000002,5.707455973343074,0.1260639211518547
10.253900000000002,5.724080975507963,0.1255447132383232
10.25628,5.737912480993517,0.1250653845856709
10.258672,5.749741885732652,0.1246245694229016
10.26106,5.758405706740116,0.1241994218027502
10.263456,5.765486735881744,0.1237843612813244
10.265852,5.771636599463595,0.1233820925426527
10.268236000000002,5.77978856379186,0.1229481283263984
10.270616,5.791432872933763,0.1224357418742779
10.27302,5.799492289463413,0.1219651343451019
10.275408,5.802988425992788,0.1215998221341826
10.277784,5.8068566495745,0.1212593147599041
10.280188,5.8092346290889925,0.1209685562769931
10.282572000000002,5.809470738230208,0.1207190869171337
10.284952,5.808216603304205,0.1205175765859775
10.287356,5.8036098931914255,0.1203856352456444
10.289744,5.797140851959089,0.1202762131573769
10.292124,5.789600875540114,0.1201868801298477
10.294516000000002,5.783411373561498,0.1200597313719501
10.296904,5.77950351158302,0.1198825560071601
10.299284,5.774245175164182,0.1197434675057205
10.30168,5.774573832104015,0.1195343740600521
10.304064,5.77806807277552,0.1193140634043009
10.30646,5.779420443073748,0.1191339783885037
10.308864,5.78407816673051,0.1189340214056175
10.311248,5.792972409305582,0.1187056361822564
10.313628,5.802378508559851,0.1184917203293969
10.316024,5.808152493373624,0.1183649234603774
10.318412,5.809083658933403,0.118353643347122
10.320792,5.813180408224854,0.1183321354451539
10.323188000000002,5.819139488635861,0.1182881300001569
10.325572,5.82430717311395,0.1182469422229853
10.327956,5.8285436920322615,0.1182172182708361
10.332744000000002,5.835666255428524,0.1181944729837472
10.335124,5.838692069533337,0.1181928797089219
10.33752,5.844743697742961,0.1181896019426246
10.339904,5.854519988191699,0.1181417090826745
10.342300000000002,5.863737200132996,0.1181284885566363
10.344704,5.878681175059824,0.1180416921146378
10.347092,5.896558416292845,0.1179150703205755
10.349472,5.915227053458785,0.1177890641342164
10.351868,5.934454769132166,0.1176315623673528
10.354256,5.955824355178825,0.1174346580784376
10.356636000000002,5.973329509359509,0.1172886211080378
10.359032,5.980312303128912,0.1172765343062234
10.361416000000002,5.986503700965397,0.117266512667961
10.363796,5.997258378802156,0.1171632402532896
10.3662,6.009503300706134,0.1170146122865541
10.368588,6.019885891490556,0.1168879790680192
10.370968,6.031339417461616,0.1167436332787318
10.373364,6.042513404178957,0.116616069017665
10.375752000000002,6.055409952388992,0.1164767147086421
10.378132,6.070448370972305,0.1163005860901136
10.380536,6.089490991048453,0.1160657664287538
10.382924,6.110535711871018,0.1158034604644279
10.3853,6.131348115268104,0.1155121476264067
10.387696000000002,6.150437957172494,0.1152365872304593
10.390084000000002,6.171018043144104,0.114918844851467
10.39248,6.184800430943544,0.1146909231030677
10.39488,6.191785120570816,0.1145492206545825
10.397268,6.194113982399196,0.1144580167280608
10.399648,6.194300973854299,0.114403310799683
10.402052,6.198212627548515,0.114309786980938
10.404436,6.207990813855122,0.1141422254971037
10.406816,6.231504166132926,0.1138000814747375
10.40922,6.261954986209759,0.1133728130540918
10.411604,6.2882618351669,0.1130105414289141
10.413984,6.316570784870456,0.1126247762060093
10.41638,6.348232309760788,0.1121838763455274
10.418768,6.376029402785147,0.1117882233090058
10.421144000000002,6.407039301369421,0.111345237223108
10.423552,6.43646640808786,0.1109080892134305
10.425936,6.46510211887338,0.1104766791157204
10.428316,6.491875498539344,0.1100658921028741
10.43072,6.513573741525835,0.1097211290031791
10.433108,6.533269883765909,0.1094026577486865
10.435488,6.5549681267524,0.1090629706916893
10.437888,6.576386830485171,0.1087405070011461
10.440276,6.601809735710775,0.108369165208754
10.442656,6.633238943175631,0.107921782409093
10.445060000000002,6.668812121760179,0.1074184874089726
10.447444,6.706666940344865,0.1068793525678429
10.449824,6.7400057007575205,0.1063805131191548
10.452228000000002,6.768828402998144,0.1059208041999208
10.454616,6.788199680014124,0.1055576666382516
10.456996,6.797560453298019,0.1053130787972012
10.459392,6.807060996208775,0.1050604418091655
10.46178,6.817632474306169,0.1047957542452711
10.464156,6.8240599812838685,0.1045853670359754
10.466552,6.835562624941042,0.1043153668977109
10.468936,6.8433406063591,0.1040777519547338
10.471316000000002,6.850978818150299,0.103847655667779
10.47372,6.856614929195081,0.103640257202409
10.476104,6.863042436172782,0.1034328435822463
10.478488,6.875895554270314,0.1031377417193536
10.480884,6.8936840394204575,0.1027936269364424
10.483268,6.904814596025292,0.1025087610723824
10.485664,6.9172956270704855,0.1021975175478942
10.488064,6.92977665811568,0.1018892162027049
10.490452,6.942257689160874,0.1015838085219535
10.492832,6.952457080205932,0.1013147166692392
10.495236000000002,6.956510399384877,0.101114833220727
10.49762,6.96214651042966,0.1009148517667546
10.5,6.966711686287804,0.1007281393684915
10.502408,6.969786618078729,0.1005749324004222
10.504792000000002,6.982220427295679,0.1003097305000066
10.507172,6.997447733191965,0.1000241921061705
10.509576,7.00652896722214,0.0998089737191041
10.511964,7.013887639759618,0.0995995802699764
10.514344,7.017242110804264,0.099433250163457
10.516748,7.02031704259519,0.0992804329339548
10.519132,7.022460808826335,0.0991345203808395
10.521516000000002,7.02674644543076,0.0989609794445578
10.52392,7.031730930169484,0.0987538473843849
10.526304,7.0324316741616535,0.0986024441849824
10.528688,7.026986346287713,0.0985193923598835
10.531084,7.027407551026164,0.0983819243089914
10.533472,7.0258266550181965,0.09826511396043
10.535852000000002,7.020381327144255,0.0981816250795126
10.538248,7.01200273296412,0.0981246005865784
10.540636,7.002972512477927,0.0980604076629158
10.543016,7.000879759790762,0.0979296828225195
10.54542,7.001068647103734,0.0977663573266137
10.547804,7.007124067029098,0.0975517096861407
10.550184000000002,7.018394393260793,0.0972776196897542
10.55258,7.018443510946905,0.0971212724654776
10.554968,7.017841002326959,0.0969585840648203
10.557348,7.020451299266928,0.0967560461897803
10.559752,7.0269260280728725,0.0965209299215338
10.562136,7.033260987251956,0.0962919417991085
10.564516,7.039735716057899,0.0960555629058272
10.56692,7.04821254561026,0.0957999774943903
10.569308,7.055338900722261,0.0955717871021876
10.571688000000002,7.057901975833988,0.0954091691718348
10.574084,7.0618155253860735,0.0952198942093992
10.576472,7.069221419751796,0.0949778502090012
10.578852,7.073554278184462,0.0947688762369105
10.581248,7.077887136617129,0.0945602337005594
10.583632,7.082359764676656,0.0943438158610284
10.586016,7.086972162363044,0.0941202259571863
10.588412000000002,7.09158456004943,0.093896315761956
10.590796,7.092612065123564,0.0936913494617944
10.593176,7.086981641652391,0.0935358378272734
10.595580000000002,7.075624455195685,0.0934233614137415
10.597968000000002,7.06468657761956,0.0932905306344705
10.600348,7.06510967821588,0.0930395714667144
10.602744,7.063390908438922,0.0928137673891093
10.605132,7.059670037915547,0.0926057897944446
10.607512,7.0580910377654495,0.0923742029541944
10.609908,7.060004382428988,0.09209323184723
10.612296,7.066061698212219,0.0917714542543046
10.614676,7.0722587836223125,0.0914446765242829
10.61708,7.080085882726484,0.0910810551824218
10.619468,7.095269758510265,0.0906418922283475
10.621848,7.113247130973381,0.0901901490338719
10.624244,7.12922240269008,0.0897570391009324
10.626628,7.148270710339835,0.0892971026679815
10.629024,7.163314816496756,0.0888685540573346
10.631416000000002,7.180081484146374,0.0884353253257279
10.633804,7.200712583661964,0.0879775580931645
10.63618,7.22399741023003,0.087512355709253
10.638584000000002,7.248073632731014,0.0870491680811929
10.640972,7.275874517471111,0.0865636525317732
10.643352,7.301533531837932,0.0860971733114428
10.645752000000002,7.32090670471178,0.0856940296031061
10.64814,7.3321317049731025,0.0853664801405957
10.65052,7.344567410047923,0.0850212029036991
10.652924,7.360076151055798,0.0846482671215185
10.655308000000002,7.369578589824425,0.0843252919121691
10.657688,7.376799388592912,0.0840331473916402
10.660088000000002,7.376942949935512,0.0838002752667794
10.662476000000002,7.374944640904833,0.08358987574962
10.664856,7.370524922247157,0.0834144771398521
10.667252,7.358888196536732,0.0833035280864521
10.669636,7.343526808587193,0.0832105487030891
10.672032000000002,7.328956816570574,0.083118728571098
10.674428,7.308240752687842,0.0830792231218482
10.676816,7.294601926231,0.08298214224429
10.679196,7.283104970147435,0.082863234113443
10.6816,7.268814517384534,0.0827572567519703
10.683988,7.25214987682288,0.0826451167371917
10.686368000000002,7.237347567380783,0.0825240525525821
10.688764,7.223476423498463,0.0823984282080201
10.691152,7.219336244094508,0.0822124582451243
10.693532,7.221062597302943,0.0819886316873152
10.695928,7.225442677563852,0.081757545453249
10.698316000000002,7.231685088944318,0.0815192967763917
10.700696,7.237927500324785,0.0812822970276536
10.703092000000002,7.247103178011446,0.0810262131579457
10.70548,7.256139086071247,0.0807766468854895
10.707856,7.273183397116717,0.0804708498725819
10.710260000000002,7.291158873721964,0.0801609513465216
10.712648000000002,7.308063415140572,0.0798599990752614
10.715032,7.327901222865376,0.0795394267452797
10.717424,7.348390656896237,0.0792275844854503
10.719812,7.368600551673379,0.0789285764426346
10.722208000000002,7.395887683876408,0.0785765704722294
10.724604,7.423174816079439,0.0782304559258946
10.726992,7.4501824090287485,0.0778999614371832
10.729372,7.479843729030533,0.0775672728743383
10.731768,7.508014804965097,0.0772621059296993
10.734156,7.535394484966744,0.0769575839675841
10.736536,7.564776265714808,0.0766432707821909
10.73894,7.587639887544424,0.0763579193936787
10.741328,7.608780947881343,0.0760756350034851
10.743708000000002,7.634345518591678,0.0757533618632907
10.746104,7.658559614861653,0.0754541740104203
10.748492,7.682633941504767,0.0751629014339771
10.750876000000002,7.708570599267439,0.0748669913063469
10.753276,7.733576091470333,0.0745743410829584
10.755664,7.753506446993754,0.0743173058970542
10.758044000000002,7.773436802517174,0.074060658056056
10.76044,7.795369258787012,0.0737913617637656
10.762828,7.819443585430127,0.0735060397331858
10.765208,7.843517912073241,0.0732211752126395
10.767604,7.868802943529855,0.0729226892674599
10.769992000000002,7.891154708680272,0.0726414958558224
10.772372,7.908151797897498,0.0724046218842945
10.774768000000002,7.920353289688971,0.0721881257691801
10.777156000000002,7.926688248868055,0.0720009627219104
10.779548000000002,7.939820906219307,0.0717829530633115
10.781948,7.948809592450866,0.0715933388755845
10.784336,7.951512437189452,0.0714494780536537
10.786716000000002,7.955798073793876,0.0713113228856676
10.789112,7.958873005584801,0.071187334066761
10.791496,7.953380455882616,0.0711311766657309
10.793876,7.946305114314596,0.0710693465197412
10.796276,7.938158837559938,0.0710158532388668
10.798664,7.929872791178419,0.0709679338578807
10.801044,7.9215867447969,0.0709198587527171
10.803448,7.914371633602021,0.0708632836873241
10.805832,7.909298392780418,0.0707901126971976
10.808216000000002,7.910371223824924,0.0706794951287672
10.810616,7.912514990056071,0.0705617202221606
10.813004,7.916660857033634,0.0704338827912055
10.815384000000002,7.918944392891642,0.0703111958541028
10.81778,7.922298863936287,0.0701809787465454
10.820168,7.927795205354208,0.070034666192768
10.822548,7.937435517891825,0.0698620632013969
10.824952,7.949217700802717,0.0696728834872536
10.827336,7.953410789608523,0.0695093561668698
10.829716,7.960537144720525,0.0693325248274815
10.83212,7.972226779832801,0.0691128018546202
10.834504,7.984056184571937,0.0688885523962683
10.836888000000002,7.998958625244128,0.0686470756189781
10.839284,8.023359712969206,0.0683414762060343
10.841672,8.047621031067425,0.0680411314665272
10.844052,8.071742579538784,0.0677464523930671
10.846448,8.093070631330807,0.067459590326948
10.848836,8.116400783869246,0.0671632683242988
10.851232,8.14252443308702,0.0668622036724467
10.853628,8.167716916745018,0.0665659556712971
10.856016,8.184761227790487,0.0663163197730564
10.8584,8.195519697342984,0.0661065422525528
10.860796,8.204276066149065,0.0659071095425224
10.863184,8.21582593163448,0.0657020989175383
10.865564,8.225233926746618,0.0655121774917109
10.867968,8.235992396299116,0.0653051383469391
10.870356,8.246611096224752,0.0651043884121778
10.872732,8.259231896896807,0.0648950417816766
10.875136,8.275996668688554,0.0646623573087089
10.877524,8.29504308048044,0.0644115709313254
10.879904,8.3167432193248,0.0641632734182134
10.882308000000002,8.337512192609383,0.0639177903569879
10.884696000000002,8.36014349701352,0.0636717565889841
10.887072,8.375977103245491,0.0634499342600209
10.88948,8.393952579850739,0.0632151896302143
10.891864000000002,8.41663110608312,0.0629409131951145
10.894248,8.440520337129001,0.0626553362582183
10.89664,8.463618172241963,0.0623675594508454
10.899028,8.480058078809616,0.0620956756708445
10.901408,8.492493783884438,0.0618397945904724
10.903812000000002,8.506140193772756,0.06157162739877
10.906200000000002,8.52313917884785,0.0612779749427674
10.90858,8.540417703176667,0.0609747970524656
10.910976000000002,8.55397156526637,0.0606780476870026
10.91336,8.566454492169433,0.0603869016470951
10.91574,8.57665577907236,0.0601144084250755
10.918144000000002,8.588207540415645,0.0598271305202714
10.920532,8.598548596945433,0.0595520398294553
10.922912,8.607539179034859,0.0592941332928788
10.925308,8.610523458885035,0.0590588753408116
10.927696,8.605918644630124,0.0588389522223159
10.930076,8.600242895188575,0.0586250624502079
10.932484,8.58683828201508,0.058430890098491
10.934868000000002,8.574085295147643,0.0582447573503753
10.937248,8.559609746787508,0.0580556381837865
10.939648000000002,8.536566716934265,0.0579150658429661
10.942036000000002,8.512732291148104,0.057769691626717
10.944416,8.49089996610836,0.0576167275991137
10.946812,8.476144878494507,0.0574361208076305
10.9492,8.466185388306405,0.0572452186112992
10.95158,8.457436602931802,0.0570430968345645
10.953984000000002,8.445614781624142,0.0568530408060865
10.956372000000002,8.433001564383565,0.0566584883932764
10.958752,8.42425277900896,0.0564552364707415
10.961148,8.418716799194273,0.0562342647600047
10.963536,8.413460358633305,0.0560029387047846
10.965916,8.405782508445338,0.0557935016472087
10.96832,8.398384197511094,0.0555741821069988
10.970708000000002,8.39126542583057,0.0553450062643252
10.973088,8.390944352322213,0.0551004548223936
10.975492,8.396210272172526,0.0548510769963505
10.97788,8.400964335343645,0.0545871592217063
10.98026,8.412655866313788,0.0543036522076748
10.982656,8.425558102097433,0.0540097522390727
10.985044000000002,8.439903360120052,0.0537299181972413
10.987428,8.456530258142811,0.0534321273472818
10.989824,8.47166691209835,0.0531543805490629
10.992212,8.482519825307334,0.0528994432631816
10.994592,8.488949228142904,0.0526725950430462
10.996996,8.493516299858918,0.0524476601979959
