Time,Force,Position
10.471828,4.412697250323292,0.1540796141021383
10.543507999999996,4.599251261168824,0.1540705614336836
10.545892,4.606932903072529,0.1539478640535981
10.548276,4.618851063894543,0.1537550962769821
10.550679999999998,4.6352852828885895,0.1534738030302983
10.553064,4.651859271509495,0.1531803026256392
10.555448,4.666570929010845,0.1529262324033419
10.557843999999998,4.683703996139193,0.1525783230031853
10.560228,4.700325206588342,0.1522106583837883
10.562612,4.718948517783908,0.1517947990634992
10.565008,4.737571828979474,0.1513834120888019
10.567392,4.754612348309206,0.1509907732579597
10.569776,4.773422650959876,0.1505063068734718
10.572172,4.7906501617447095,0.1500427861558229
10.57456,4.8038734710367095,0.1496885876632435
10.57694,4.81574630588835,0.1493958630591357
10.579336,4.831391024807347,0.1489678359158368
10.581724,4.845964808539707,0.148567046039525
10.58412,4.858676261152509,0.1482055571694864
10.586515999999998,4.875391915258144,0.1477476769022069
10.588903999999998,4.895599914177416,0.1471980099732542
10.591284,4.917437926790766,0.1465810332755221
10.593683999999998,4.931966384552752,0.1461015172247373
10.596071999999998,4.948544164889397,0.145521255924059
10.598452,4.9616768222406495,0.1449958292597258
10.600847999999996,4.980024385898234,0.1443501030435951
10.603236,5.000653589555956,0.1436368602832263
10.605616,5.018209757280622,0.1429890982875071
10.608012,5.040142213550459,0.1422769538970062
10.6104,5.059141403514101,0.1416331979864835
10.61278,5.079351298291242,0.1409589064750543
10.615183999999998,5.099840732322103,0.1402631944138777
10.617572,5.117768987099107,0.1396528658090821
10.619952,5.133136062622254,0.1391255154009148
10.622348,5.151715943705316,0.1385188814235826
10.624736,5.168061406616483,0.1379247426600796
10.627116,5.1771898624749015,0.1375009569339877
10.629512,5.187389253519958,0.1370464413952275
10.6319,5.199311206057712,0.1365680138717822
10.674915999999998,5.110172484181032,0.1363701114657377
10.6773,5.113617607166424,0.1363277000431196
10.679691999999998,5.119064830898235,0.1362446937337401
10.682076,5.127445320936239,0.136107960841878
10.684471999999998,5.14299559619875,0.135867879166303
10.686863999999998,5.162782390379571,0.135578906459858
10.689247999999996,5.1876443212398655,0.1351873793576624
10.691628,5.208921359487906,0.1348513139836649
10.694031999999998,5.2264737354968345,0.134578318238771
10.696415999999996,5.252127062290047,0.1341892530754765
10.698796,5.283367382441929,0.1337167066931318
10.701188,5.30995187479492,0.1333254217546844
10.703572,5.338119159013747,0.132923296800087
10.705968,5.370383192524025,0.1324965217576067
10.708372,5.403531169765838,0.132103602956625
10.710755999999998,5.444128471485877,0.1316003464311231
10.713136,5.479930175780165,0.1311844627988543
10.715528,5.520946786380785,0.1306756701657089
10.717916,5.568761095153573,0.1300592491276986
10.720307999999998,5.622302166911892,0.1293523831508062
10.722699999999998,5.67174648937876,0.1286836813146696
10.725087999999998,5.714021026621122,0.1281032117650689
10.727468,5.75257090162437,0.1275805296481325
10.72986,5.78418330882859,0.1271815568554456
10.732248,5.8132817586071965,0.1268079276773889
10.73464,5.842008121333464,0.1264135738009107
10.737044,5.865287260327921,0.1260931184440412
10.739432,5.886284759322242,0.1258224822990399
10.741811999999998,5.909004819809259,0.1255353893575031
10.744203999999998,5.926137886937607,0.1253268630275631
10.782448,5.85743000211633,0.1253063071634163
10.784824,5.847840703122696,0.125305181061951
10.78722,5.845375863383193,0.1251363084832807
10.789604,5.840257296591217,0.1249941445036769
10.791983999999998,5.833695707560264,0.1248489965171653
10.794384,5.830766232969807,0.1246139542285626
10.796772,5.826905592819572,0.1243913075972471
10.799151999999998,5.819180520803364,0.124225520089269
10.801548,5.814528484720211,0.124005753159798
10.803931999999998,5.798375700837754,0.1239964870683365
10.806323999999998,5.785807809567551,0.1239483136854909
10.80872,5.780736464603817,0.1237538205676346
10.811108,5.781811191506194,0.1234501402032243
10.813487999999998,5.781954752848792,0.1231563653966235
10.815879999999998,5.780235983071834,0.1228857362290359
10.818267999999998,5.778284895869399,0.1225820825694389
10.820664,5.773028455308431,0.1223014681428059
10.823067999999996,5.763907582881489,0.1220780191340106
10.825452,5.757719976760743,0.1218085002799302
10.827832,5.747388399520304,0.121614510510161
10.830228,5.739291240451757,0.1214196062864604
10.834996,5.712200578993176,0.1212988231022012
10.837392,5.697351047722836,0.1212978551715676
10.839776,5.690882006490501,0.1211881222647
10.842155999999996,5.684505513056782,0.1211196811009609
10.84456,5.679339724436562,0.1210214402023974
10.846948,5.6748255621224,0.1209290417185069
10.849327999999998,5.671242565368017,0.1208248869579481
10.851732,5.676087280479881,0.1205639029175897
10.854116,5.684936197084579,0.1202416874570517
10.856495999999998,5.690432538502502,0.1199928225104088
10.8589,5.699793311786397,0.119695139663986
10.861284,5.713809912869184,0.1193422643666815
10.863668,5.735415608057057,0.118896970448167
10.866064,5.757253620670408,0.1184837854913091
10.868448,5.780255116269014,0.1180929668722664
10.870827999999998,5.805630799666375,0.1176915741623769
10.873232,5.827793677503822,0.117348272088322
10.875616,5.853309130528042,0.1169351622207803
10.877999999999998,5.8761708564997885,0.1165479778443869
10.880396,5.899032582471535,0.116158695794165
10.882784,5.924595257324,0.1156893164048335
10.88516,5.946433269937351,0.1152635291632404
10.887564,5.962404749938312,0.114926812635328
10.889952,5.974791337327019,0.1146239209228723
10.918624,5.902404116237004,0.1146130771861081
10.921003999999998,5.893745982803148,0.1145844003661215
10.9234,5.888812511608405,0.1145151472041981
10.925788,5.887883241906497,0.1143903306258321
10.928184,5.887885137764366,0.1142555496100523
10.93058,5.891611695861348,0.1140826204580731
10.932968,5.903998283250056,0.113808988397518
10.935344,5.918806280265761,0.1134848954517009
10.93774,5.939620579520716,0.1130805659817967
10.940124,5.963088605828147,0.1126573028226949
10.94252,5.990700603255271,0.1121733995551013
10.944915999999996,6.015658873629921,0.111709015507354
10.9473,6.043969719191346,0.1111827590524568
10.94968,6.073910578446852,0.1106029938296307
10.952083999999996,6.10091817139616,0.110054201679274
10.954472,6.128624612479771,0.1094604629679723
10.956852,6.154468722443825,0.1088872069802402
10.959251999999998,6.180173062781021,0.10832010303708
10.961639999999996,6.20773973423777,0.1077382109673797
10.96402,6.237448276067799,0.1071266306046612
10.966419999999998,6.264083781964771,0.1065641481889633
10.968807999999996,6.283921589689577,0.106088805101019
10.971184,6.29696169924221,0.1056955340767254
10.973587999999998,6.3030643409958165,0.1053895889368233
10.975975999999998,6.313730262749697,0.1050036761654105
10.978356,6.3206715222644645,0.1046550498596535
10.980759999999998,6.320815083607063,0.1043855654120285
10.983143999999998,6.317466300136025,0.1041805271966746
10.985524,6.312255185545431,0.1039932115596483
10.987927999999998,6.303878487223165,0.1038079698895035
10.990315999999998,6.291497587408065,0.1036708214279762
10.992692,6.282049953899159,0.1035009166302789
10.995095999999998,6.273952794830612,0.1032998263826058
10.997483999999998,6.2663674924412645,0.1031133487331987
10.999864,6.265440118597225,0.1028626812919266
11.002259999999998,6.267818098111718,0.1026032865682374
11.004644,6.27126701281285,0.1023281096180123
11.007024,6.277788963447037,0.102014535683951
11.00942,6.280306712588391,0.1017481077438937
11.011808,6.277469785796551,0.1015590719450092
11.014188,6.277146816430326,0.1013620602322117
11.016588,6.280548509303215,0.1011341110341444
11.018976,6.286464159601716,0.1008967761855111
11.021356,6.297035637699112,0.1006185542453759
11.023759999999998,6.299831030236315,0.1004653841549535
11.026147999999996,6.306211315385772,0.1002894902923049
11.028528,6.31231206128151,0.1001282192884457
11.030931999999998,6.324279339789637,0.0999056837879376
11.033315999999996,6.334476834976824,0.0997370538217996
11.0357,6.352495741694575,0.0995327060344408
11.038099999999998,6.377963972890553,0.0992709240771718
11.040487999999998,6.402081729646172,0.0990400639298091
11.042868,6.425360868640631,0.0988574022519043
11.045263999999998,6.448640007635088,0.0986747405739994
11.047651999999998,6.4711277506966285,0.098495421363207
11.050032,6.490262918571394,0.0983668975958375
11.052435999999998,6.510841108685133,0.0982470558702926
11.054819999999998,6.529277428425596,0.0981571690271671
11.057204,6.551438410405172,0.0980390396430645
11.059599999999998,6.582259421676475,0.0978444957516324
11.061984,6.611078332201359,0.0976719912961822
11.064364,6.6384069986590255,0.0975368091330021
11.066767999999998,6.669879636236385,0.0973550154827471
11.069155999999998,6.703354374560161,0.0971552381670971
11.071536,6.74190424956341,0.096898127530787
11.07394,6.776589692700684,0.0966772064188564
11.076327999999998,6.813417006211236,0.0964285225108761
11.078708,6.846519657482675,0.0962102746735869
11.081103999999998,6.879250221701776,0.0959690928508593
11.083491999999998,6.902389591069374,0.0958103443603573
11.085872,6.918871031891664,0.0957067749403859
11.088264,6.93763411271409,0.0955702288410454
11.090652,6.954674632043821,0.0954402115817377
11.093047999999998,6.977861223239661,0.0952476681124476
11.095439999999998,7.000116648875724,0.0950638181024229
11.097827999999998,7.022139757086309,0.0948505261697354
11.100208,7.044582174177475,0.0946190599665547
11.102612,7.0699578575748365,0.0943641125909448
11.104995999999998,7.095892619479638,0.0940857408350101
11.107376,7.111305020973159,0.0938878042335799
11.10978,7.131280702466953,0.0936285891242965
11.112163999999998,7.1498133617217725,0.0933611106786316
11.114544,7.16341065392398,0.0931381843053638
11.116948,7.1734230535139325,0.0929332353542449
11.119336,7.18199243086491,0.0927212295931197
11.121712,7.191772513029386,0.092490269460908
11.12412,7.204765400753779,0.0922254793892423
11.126504,7.21803782773189,0.0919483921115428
11.128883999999998,7.237316556949253,0.0916216956358385
11.131288,7.260367170233971,0.0912322234444016
11.133672,7.285839193145688,0.0908070711148891
11.136051999999998,7.310659589751347,0.0903785248041317
11.138456,7.335899295237586,0.0899316657269946
11.14084,7.351408036245462,0.0895598325604857
11.143219999999998,7.36612538132042,0.0891884790729384
11.145616,7.386569489380907,0.0887820183130825
11.148003999999998,7.403428704829143,0.0883909536122137
11.150384,7.416842797291984,0.0880095916203638
11.152788,7.425973149008272,0.0876740296620818
11.155172,7.445253774083504,0.0872517805859949
11.157555999999998,7.460390428039042,0.0868719107828353
11.15996,7.476877556434939,0.0864690127478538
11.162344,7.495646324830973,0.0860385382391844
11.164723999999998,7.517488129160063,0.0855835168018813
11.167128,7.543473904608846,0.0850967190488229
11.169516,7.570670384871128,0.0845956871538526
11.171895999999998,7.590138001401463,0.0841449209214734
11.1743,7.60853468274516,0.0837052523091242
11.176684,7.619342269983771,0.0833097049099338
11.179064,7.628659613155162,0.0829430752808385
11.181468,7.635835085953276,0.0825979440219407
11.183852,7.639797753191475,0.0822838120424321
11.186232,7.643760420429674,0.0819702145986301
11.188628,7.64958541878743,0.0816458209541292
11.191012,7.655270647518323,0.0813280028735186
11.193391999999998,7.657370983636965,0.0810230776789504
11.195796,7.660262715688524,0.0807192574716881
11.198184,7.661012577366805,0.0804344852206002
11.200563999999998,7.662041978298809,0.0801362860197072
11.202968,7.653852271431646,0.0799117927344143
11.205356,7.643660463818066,0.0797009801681907
11.207736,7.631187016204349,0.0795158364203611
11.210132,7.614569597470938,0.0793646032855013
11.248364,7.303490503000793,0.0793377354905217
11.250744,7.302047480761817,0.0793272118383544
11.253147999999998,7.301395854455759,0.0793188876276116
11.255532,7.304329120761955,0.0793012027519963
11.257912,7.312197754120763,0.0792520517219231
11.260315999999998,7.324350128226124,0.0791627095333482
11.262703999999998,7.335152027891126,0.0790953569599058
11.265084,7.354381639422375,0.0789550002342331
11.267487999999998,7.372680085393847,0.0788200021046788
11.269871999999998,7.394191336925235,0.0786559035081158
11.272252,7.413328400657869,0.0784848376156999
11.274655999999998,7.434467565136918,0.078300338753579
11.277039999999998,7.4528132329366334,0.0781262341654875
11.279424,7.470879361482628,0.077965260659996
11.281819999999998,7.490156194842122,0.07778907658474
11.284204,7.502495560402587,0.0776575843450943
11.286584,7.516837026709469,0.077513256689457
11.288983999999996,7.531597801896932,0.0773509972570813
11.291368,7.544915554845418,0.0771781738886951
11.293748,7.5583730774207645,0.0769997534308583
11.296144,7.567454311450939,0.0768287472402277
11.298532,7.58002789029475,0.0766187135671937
11.300912,7.5938121739520605,0.0763932158693087
11.303308,7.606013665743534,0.0761638156955644
11.305696,7.617563531228948,0.0759278753656435
11.308075999999998,7.632465971901142,0.0756613865719381
11.310472,7.648067260707633,0.0753650209952947
11.31286,7.657522477648016,0.0751140826224206
11.315256,7.666046529028621,0.0748671552752292
11.317652,7.673918954103167,0.0746134963756628
11.320036,7.685516041416825,0.0743478388770213
11.32242,7.698743142424563,0.0740526158624184
11.324816,7.717324919365494,0.073714145436046
11.327204,7.738467875560282,0.0733442850172322
11.329584,7.759750601381931,0.072970903361286
11.33198,7.788529873510049,0.0725396232640496
11.334364,7.81693705858583,0.0720922639051178
11.33676,7.844692617355553,0.0716375401667594
11.339163999999998,7.875521212058331,0.071165750390542
11.341547999999998,7.907280972320888,0.0706931186334362
11.343928,7.94169445963592,0.0702202385196763
11.346332,7.973314450271617,0.0697602828462935
11.348715999999998,8.008007476840367,0.0692855020119419
11.351096,8.044702604155537,0.0688032154326801
11.3535,8.081257961843846,0.0683300107969207
11.355887999999998,8.10924583803905,0.0679205392453546
11.358268,8.136954174980529,0.0675218415543717
11.360668,8.167735547855063,0.0671069007887513
11.363055999999998,8.1973062159161,0.06670509704798
11.365436,8.227528510283195,0.0663150233320433
11.367831999999998,8.254026142411176,0.0659349546777662
11.370219999999998,8.27768305603158,0.0655989125693431
11.372604,8.302643222264098,0.0652837592187526
11.374999999999998,8.323179878123204,0.0650051739215305
11.377383999999996,8.342366059541948,0.0647453204312054
11.379764,8.356057795400641,0.0645288003609974
11.382163999999998,8.36476694237848,0.064366955884562
11.384548,8.373848176408655,0.0642242356287055
11.386932,8.381578935998471,0.0641000174851696
11.389328,8.388238760401649,0.0639832572323508
11.391712,8.392756714431547,0.0638810217048499
11.394092,8.39522534588679,0.0638221083054619
11.401272,8.382655558758715,0.0637975507865988
11.427555999999996,8.3618450512195,0.0637827645523611
11.42994,8.359750402674466,0.0637622083379732
11.432344,8.35951808524899,0.0637381843812418
11.434727999999998,8.358075063010013,0.0637262336840661
11.437108,8.359705076704092,0.0636988985141344
11.439503999999998,8.361754399278752,0.0636562487543009
11.441891999999998,8.367575605920768,0.0635728282297096
11.444276,8.372884955883588,0.063475451517662
11.44668,8.379265241033044,0.0633715511570658
11.449063999999998,8.38778739655578,0.0632540730179
11.451447999999996,8.395238616891874,0.0631437122841778
11.453843999999998,8.400827506108413,0.0630374729155078
11.456227999999998,8.40869803532509,0.0629122723201438
11.458608,8.421131844542042,0.0627508706646725
11.461011999999998,8.431982861893156,0.0625828487924006
11.463399999999998,8.437666194766182,0.0624100700257224
11.46578,8.439764635026954,0.0622381196335321
11.468179999999998,8.449219851967337,0.0620251032401066
11.470563999999998,8.460584621855517,0.0617754877742536
11.472944,8.474650340624416,0.0614934342079551
11.475343999999998,8.489414907527618,0.0611868645191397
11.477728,8.505669718498037,0.0608595789307537
11.480112,8.517688010550145,0.0605239797145143
11.482507999999996,8.529893294057358,0.060149884495506
11.484892,8.539444850512096,0.0597767877211678
11.487287999999998,8.549136176593693,0.0593995295300218
11.489684,8.55282120043604,0.0590441127339564
11.492072,8.559719029838304,0.058670469133017
11.494455999999998,8.563311505882032,0.0582862456275685
11.496852,8.565740498940508,0.0578799390322813
11.499235999999998,8.566866239386867,0.057455450557612
11.501616,8.565338252780752,0.0570290947368251
11.504011999999998,8.56823377654805,0.0565757212997466
11.506396,8.5634004365834,0.0561392473309361
11.508791999999998,8.55963803180539,0.0556968082277835
11.511196,8.556946562214018,0.05524860376584
11.51358,8.557979754861758,0.0547965771199627
11.515959999999998,8.557010846763085,0.0543526438709884
11.518364,8.552549593850774,0.0539343552808036
11.520752,8.544875535378546,0.0535326477519145
11.523132,8.539343347279596,0.0531211623642412
11.525528,8.53124997992679,0.0527344480588324
11.527912,8.530233849999869,0.0523254401740872
11.530295999999998,8.530520972685068,0.0519354217418657
11.532692,8.527595289810348,0.0515602423522358
11.535075999999998,8.52466960693563,0.0511854199763285
11.537456,8.526819060740387,0.0507932986191515
11.53986,8.525755708985225,0.050416733760194
11.542248,8.525995609842179,0.0500575925399213
11.544627999999998,8.525396892937973,0.0497270300843091
11.547024,8.52731213345938,0.0494054827237956
11.549411999999998,8.528528525846486,0.0491069305119218
11.551792,8.520897897486764,0.0488579402695201
11.554187999999998,8.51978542804549,0.0486070054640965
