Time,Force,Position
10.663923999999998,3.7637379095961583,0.1709935401779569
10.666308,3.777099092657149,0.1707157951107031
10.668692,3.7973505216889256,0.1702940820564708
10.671096,3.825842671131847,0.1696612467211648
10.673483999999998,3.863274389120214,0.1687589719633808
10.675864,3.908295201213668,0.1676335035497791
10.678259999999998,3.958623467412071,0.1663940854535278
10.680647999999998,4.01025498622259,0.1651775522891407
10.683028,4.066495111003758,0.1638705036506448
10.685424,4.130044790636291,0.162357594531122
10.687812,4.193734239895686,0.1608429176920378
10.690192,4.251604378370933,0.1594477658440944
10.692595999999998,4.310824991286538,0.1580384809246656
10.694983999999998,4.363387675656836,0.1568393063931399
10.697368,4.411574071481962,0.1557355537073766
10.699763999999998,4.461949559508608,0.1544788970681175
10.702151999999998,4.506505736751106,0.1533289055697614
10.704532,4.551481222874186,0.1521676058077508
10.706927999999998,4.592172968250712,0.151192820845512
10.709316,4.635238901425993,0.1502016835863071
10.711696,4.68030693534769,0.1491626663998637
10.714092,4.722349155164574,0.1481906380677216
10.716476,4.758432294570452,0.1473490142900372
10.718856,4.790790771737216,0.1466158920440791
10.721256,4.813930141104813,0.1461412611290606
10.72364,4.832693221927239,0.1457468367824118
10.726036,4.846568157525297,0.1454146435793428
10.728431999999998,4.859931236444158,0.1450719964781176
10.730819999999998,4.879487609057372,0.1445256063470124
10.7332,4.898112816110808,0.1440068219506979
10.735599999999998,4.918088497604603,0.143444602978684
10.737987999999998,4.940997445404593,0.1428163384298349
10.740368,4.955106594285996,0.1423789185063576
10.742764,4.975454362832128,0.1418440644000852
10.745152,4.999619341415991,0.1412833116353451
10.747532,5.026298277425468,0.1407018241997732
10.86462,5.071358727915687,0.1404423799550549
10.867003999999998,5.062375729257737,0.1403699261066494
10.8694,5.058048558398678,0.140214911307465
10.871804,5.060658855338648,0.1399126339021801
10.874188,5.063548691532338,0.1395926777071327
10.876572,5.064017118099032,0.139348947497161
10.878964,5.063786696531424,0.139155886102007
10.881352,5.069143268322486,0.1388645244099867
10.883736,5.078504041606382,0.1384916113130243
10.886128,5.090146454890414,0.1380592575006642
10.888516,5.106724235227059,0.1375307869992325
10.890895999999998,5.123953641869763,0.1370132093930234
10.893292,5.141974444445384,0.1364922433589832
10.89568,5.169493894073891,0.1357584067912728
10.89806,5.198363818142758,0.1349851197142965
10.900455999999998,5.22760582926396,0.1342374922992827
10.902843999999998,5.264297164863391,0.1333653885180311
10.90524,5.298147781955244,0.1325995171429768
10.907644,5.332138168673955,0.1318261837383735
10.910028,5.364778080952308,0.131103942218696
10.912408,5.4002114899099976,0.1303399837058941
10.914808,5.43229232368091,0.1296676813260624
10.917196,5.464373157451825,0.1289994328566158
10.919576,5.491937933050706,0.1284007898740343
10.921972,5.51750060790317,0.1278464376880627
10.92436,5.5412009516360765,0.1273211262291263
10.92674,5.567182935369122,0.1267397162024224
10.929136,5.593584227982747,0.126134734539221
10.931528,5.614538296864563,0.1256070483389857
10.933908,5.632279560186464,0.1251510078381005
10.936312,5.646016622015531,0.1247708979974401
10.9387,5.660824619031236,0.124374285052119
10.94108,5.678054025673939,0.1239207618595436
10.943476,5.689277130077392,0.1235775012544168
10.945864,5.694074623361013,0.1233612214873362
10.948244,5.700082821458134,0.1231150769186729
10.950644,5.701295422129501,0.1229404714443645
10.953032,5.699342439069198,0.1227781237804159
10.955412,5.698972247874729,0.1226095672381223
10.957808,5.699533222240039,0.1224289938603098
10.960196,5.6987437221649895,0.1222882631672306
10.96258,5.6993046965303,0.1221085179751621
10.964976,5.699214044589551,0.1219233370721718
10.967368,5.699635249328,0.1217527526465807
10.969748,5.700568310745648,0.1215973481181001
10.972152,5.703223933655993,0.1214268145006738
10.97454,5.706670952499255,0.1212545258830124
10.97692,5.711560993581494,0.1210869844834414
10.979323999999998,5.720827323208903,0.1208794465258764
10.981708,5.7330269191425085,0.120629046084012
10.984088,5.74694907656881,0.1203645049652348
10.986484,5.756867032502275,0.1201652817920583
10.988872,5.762221708435469,0.1200650696839519
10.991252,5.764363578808745,0.1200246274820203
10.993655999999998,5.775445017727467,0.1198453657446326
10.996043999999998,5.784384586272914,0.1197070215314424
10.998424,5.796909047430613,0.1195312478616418
11.00082,5.819024703439816,0.119226134354092
11.003208,5.841280129075878,0.118916403723847
11.005592,5.861533453965524,0.1186381776790856
11.007988,5.882857714041808,0.118341338122392
11.010376,5.904042204491232,0.1180559661693188
11.012756,5.926018090873575,0.1177701464487405
11.015156,5.950415386882913,0.1174309530393346
11.01754,5.974300826213056,0.1170784893409161
11.019924,5.997534639237139,0.1167216651439663
11.02232,6.017835185955029,0.1164068215136131
11.024708,6.033619674500886,0.1161380011101717
11.027088,6.042746234501435,0.1159514007881431
11.029484,6.050150233009288,0.1157789326394858
11.031872,6.054620965210946,0.1156461444794313
11.034256,6.059091697412604,0.1155127828637094
11.036652,6.065983839241257,0.1153242900024624
11.039036,6.080232757749522,0.1150116156372148
11.04142,6.0906172443918125,0.1147528154850021
11.043816,6.101932896593882,0.1144829626101745
11.046204,6.111945296183835,0.1142021963089661
11.0486,6.116091163161399,0.11400298037243
11.050995999999998,6.118514468646266,0.1138166434528391
11.053387999999998,6.12293987487755,0.1136022177001752
11.055768,6.123221309989139,0.1134517860918602
11.058163999999998,6.121360874727452,0.1133379043166729
11.060551999999998,6.1195004394657655,0.1132243102462389
11.062932,6.117360464950357,0.1131274880513801
11.065328,6.118013987114285,0.1130020251518504
11.067719999999998,6.120390070770909,0.1128659673651197
11.070096,6.124768255173948,0.1127028913029975
11.072496,6.133010871442962,0.1124940981209918
11.074884,6.148330725137865,0.1121865757760865
11.077264,6.162160334765549,0.1119199756252114
11.07966,6.181344620326425,0.1115673066839643
11.082048,6.199597740327523,0.1112217409049859
11.084432,6.214917594022426,0.1109130321615624
11.086824,6.224091375851218,0.1106953378884032
11.089212,6.232194222493372,0.1104947815723628
11.091596,6.243370105068581,0.1102519052661055
11.093995999999995,6.253195513203431,0.1100422723727025
11.09638,6.2627413820845605,0.1098485513150371
11.098775999999996,6.271867942085109,0.1096788515326327
11.101171999999998,6.281925667645437,0.1095014343374975
11.103559999999998,6.295056429138819,0.1092786365099456
11.105939999999997,6.3084667298859225,0.1090388113837831
11.108335999999998,6.320014699513469,0.1088180973605471
11.144184,6.249489809543011,0.1087497851296852
11.146572,6.245952138759001,0.1087317255924203
11.148951999999998,6.240552136855434,0.1087312371465435
11.151356,6.2363628397653645,0.1087061788686614
11.15374,6.236829370474189,0.1086375090630027
11.156123999999998,6.239949628235489,0.1085507249593619
11.158527999999995,6.247585944168819,0.1084287806139857
11.160912,6.254663181594707,0.1083365180904744
11.163287999999998,6.264114606819351,0.108240897159724
11.165692,6.271424161670717,0.1081780235959213
11.16808,6.275288593536691,0.1081346431776043
11.17046,6.28823236357497,0.1079739006329828
11.172856,6.302247068799888,0.1077976757636931
11.17524,6.321336910704278,0.10755543613702
11.177619999999996,6.344198636676024,0.1072361992287157
11.180024,6.374696678581102,0.1068020490223405
11.182412,6.404403324553261,0.1063701707054814
11.184791999999998,6.431456243472944,0.1059626152310102
11.187188,6.454924269780375,0.1055797388450759
11.189576,6.47601810828905,0.1052006411326192
11.191951999999995,6.498974277917283,0.1048042343944447
11.194356,6.521371369038076,0.1044386877662938
11.196744,6.544979164972366,0.1040521971608132
11.199123999999998,6.567655795346878,0.103675972425272
11.20152,6.585024971616442,0.1033352174605444
11.203907999999998,6.600951125647028,0.1029900376732725
11.206287999999995,6.614503091878861,0.102648652134533
11.208692,6.63196671180491,0.1022250090516674
11.211075999999998,6.649337783932343,0.1017662819323964
11.213455999999995,6.669921661619691,0.1012618556695238
11.21586,6.69651184154629,0.1006912045418386
11.218248,6.71523338811408,0.1002088437043513
11.220631999999998,6.731021668375677,0.0997561759457173
11.223028,6.741874581584661,0.0993563907891722
11.225412,6.745650257367754,0.0990375157068584
11.227791999999996,6.739135890165045,0.0988428925409671
11.230196,6.729828026283002,0.0986693780235889
11.232584,6.716376191281261,0.0985462121419066
11.234963999999998,6.711584385571248,0.0983437944500239
11.23736,6.706513040607514,0.0981553036002164
11.239748,6.703723335643917,0.097931563924816
11.242127999999996,6.699490608441345,0.0976998056424376
11.244532,6.694186946052135,0.0974824915631542
11.24692,6.6902337581032825,0.097237052609293
11.249299999999998,6.690936397953322,0.096957980296404
11.251696,6.691219728922781,0.0967004026053315
11.254084,6.691363290265379,0.0964501920734613
11.256463999999998,6.691878938660315,0.0962228854733843
11.258868,6.6901129470551135,0.0960294634638088
11.261252,6.687555559516994,0.0958358769278861
11.263631999999998,6.68178536641896,0.0956831405482964
11.266036,6.676946338880703,0.0955234664913725
11.26842,6.677182448021919,0.0953112460345347
11.270803999999998,6.682773233096329,0.0950334280256399
11.2732,6.697024047462463,0.0946865802746552
11.275583999999998,6.71527906332143,0.094298108986796
11.277967999999998,6.742333878098983,0.0938362438690694
11.280364,6.775534764742647,0.09331088966424
11.282752,6.797654212467588,0.0928966649616188
11.285131999999996,6.824848796872002,0.0924354257606637
11.287527999999998,6.850553137209196,0.092011454305617
11.289915999999998,6.879982139785503,0.0915651572222635
11.292312,6.910993934227647,0.091123140280316
11.294708,6.93995640609513,0.0907427611402091
11.297096,6.963703971656281,0.0904197726333881
11.299476,6.985589206097875,0.0901071326274926
11.301872,7.007194901285748,0.0898085664732309
11.30426,7.0290801357273445,0.089499954396269
11.306639999999998,7.057483529087385,0.0891542790493585
11.30904,7.0846762176339295,0.0888282361119026
11.311428,7.108516330993699,0.0885434109869335
11.313807999999998,7.136081106592581,0.0882378534013398
11.316204,7.161084702937604,0.0879799832691557
11.318592,7.182456184842131,0.0877807106412941
11.320971999999998,7.196470890067048,0.0876597091183024
11.323368,7.213418861598162,0.0875175251053164
11.325755999999998,7.223149826076525,0.0874461737647296
11.328152,7.2281777409277534,0.0874410000275763
11.330548,7.242145224324428,0.0873633980503406
11.332936,7.251828966974548,0.0873331205421512
11.335316,7.259650378505112,0.0873130091249853
11.340107999999995,7.27487389268566,0.0872931571940511
11.342488,7.285116713843222,0.0872388568306191
11.344883999999997,7.296430470187422,0.0871727141961178
11.347272,7.313610759144012,0.0870648016504101
11.349652,7.330791048100604,0.0869568891047023
11.352055999999996,7.34354782668378,0.0869004804935542
11.354443999999996,7.351788547094924,0.0868631647508639
11.356824,7.362543224931683,0.0868239665208742
11.359219999999995,7.382936319448189,0.086686431139986
11.361607999999997,7.3994649820987215,0.0865748836830713
11.363992,7.416412953629835,0.0864454245193322
11.366387999999995,7.432569529228029,0.0863140667507577
11.368775999999997,7.454360320013138,0.0861162432069935
11.371156,7.47321784449205,0.0859403433459084
11.373552,7.493286073784461,0.0857471117437241
11.37594,7.514053151211175,0.0855220253119733
11.37832,7.531886962331693,0.0853196015699497
11.380716,7.548649838265572,0.085127412230638
11.3831,7.568625519759365,0.0849038942576698
11.385483999999998,7.580080941588295,0.0847277192966993
11.38788,7.595959873790638,0.0845030009830696
11.390268,7.604109942261034,0.0843275037909916
11.392664,7.615333046664488,0.0841267418628439
11.395059999999996,7.622971258455686,0.0839394969321981
11.397447999999995,7.630889009500606,0.0837403375015593
11.399828,7.640157234985884,0.0835175150240632
11.402223999999997,7.647283590097886,0.0833153521171667
11.404612,7.655108793344189,0.0830843715738098
11.406996,7.652783723231546,0.0829338850061243
11.409391999999997,7.649807026812847,0.0827751404814192
11.41178,7.644036833714812,0.0826291320914137
11.414164,7.640548280616914,0.0824564207493862
11.416559999999995,7.632124360466405,0.0823170137820919
11.418948,7.623979979569616,0.0821654360131466
11.421328,7.612110936433714,0.0820300342410999
11.423724,7.600102123670951,0.08190026341442
11.426112,7.58129561273602,0.0818119614179992
11.428492,7.565981446614725,0.0816802571443756
11.430888,7.546523309373736,0.0815832112743283
11.433276,7.532931704745137,0.0814483573179326
11.435672,7.513985424183346,0.0813646337233048
11.438071999999998,7.50369917291328,0.0812307747912058
11.440455999999998,7.48954848977724,0.081119343861247
11.442836,7.471905461827565,0.0810505684455654
11.445235999999998,7.455333369064529,0.0809709508186863
11.447619999999995,7.439692441861268,0.0808869865575261
11.450004,7.425401989098368,0.080780245175333
11.452399999999995,7.408969665962192,0.0806932327719988
11.454787999999995,7.39533083950535,0.0805938697651294
11.457172,7.384625279354703,0.0804757317161293
11.459567999999996,7.374571345510114,0.0803653693822919
11.461955999999995,7.363446476478886,0.0802648974764623
11.464336,7.356046269686771,0.0801482114888009
11.466735999999996,7.349437458827577,0.0800335818325127
11.469123999999995,7.351768216513826,0.0798598179416325
11.471508,7.3550301397598545,0.079682060450959
11.473903999999996,7.365369300431772,0.0794515325434725
11.476291999999995,7.372495655543773,0.0792517654126576
11.478676,7.384697147335248,0.0790152973939547
11.481067999999995,7.395827703940083,0.078789447384643
11.483452,7.415246202784306,0.0784987481758738
11.485847999999995,7.426796068269721,0.0782571713203219
11.488252,7.444352235994388,0.0779772441611062
11.490636,7.468473784465744,0.0776343733925227
11.493015999999995,7.491384628123603,0.0773085468014616
11.495407999999998,7.518718982154877,0.0769428759035821
11.497791999999995,7.549638228798402,0.0765718056520642
11.500172,7.580417705815068,0.0762075306747018
11.502571999999995,7.61440998839165,0.0758169388940632
11.504959999999995,7.647191566154734,0.0754433609292115
11.507351999999996,7.6842568846643715,0.0750356401008808
11.509743999999998,7.721322203174009,0.0746293378255341
11.512127999999995,7.754383320190812,0.0742484841666162
11.514508,7.784511170901421,0.0738835650418185
11.516911999999998,7.806490848999503,0.0735756761918828
11.519295999999995,7.830612397470859,0.0732517924442661
11.521676,7.857667212248413,0.072917097623459
11.524079999999998,7.8890057677725185,0.0725502083283716
11.526463999999995,7.916479891430653,0.0722033570713568
11.528844,7.948237755835341,0.0718260915260825
11.531236,7.969845346881084,0.0715121353119577
11.533624,7.992663642740325,0.0711822143687257
11.536016,8.008684240427398,0.0708849851411921
11.538411999999996,8.021631802181417,0.0706096265576571
11.540799999999996,8.033648198375657,0.0703368947993812
11.543176,8.04124108419648,0.0701047540006586
11.545572,8.045109307778192,0.0698839571828464
11.547956,8.048186135426986,0.0696601518659102
11.550352,8.046187826396308,0.0694656083190786
11.552743999999995,8.042187416619214,0.0692812980434288
11.555128,8.032180704602867,0.0691287323081061
11.557523999999995,8.024176093332937,0.0689657910337536
11.559928,8.020455222809563,0.0687709814051441
11.562312,8.02059878415216,0.0685609690983752
11.564691999999996,8.024606777360733,0.0683352352408135
11.567096,8.024610569076472,0.0681304040379788
11.56948,8.01860805855296,0.067956821283131
11.571859999999996,8.006040167282755,0.0678354679363879
11.574264,7.992121801572194,0.0677325131684917
11.576648,7.970055263249104,0.0676750834416036
11.579027999999996,7.956928293471461,0.0675746606504646
11.581432,7.948736690746428,0.0674516438407998
11.583816,7.943338584700731,0.0673213530251767
11.586191999999995,7.9367297738415346,0.06720402500675
11.588587999999998,7.931471437422698,0.0670678764969099
11.590971999999995,7.923419604324525,0.0669378988146353
11.593363999999998,7.918440807159409,0.0667904542105361
11.595768,7.915324341113848,0.0666387010611179
11.598156,7.917702320628342,0.0664436348482527
11.600535999999998,7.926366141635805,0.0662097961227351
11.602936,7.943969531188714,0.0659377092527054
11.605324,7.9575687192487905,0.0656850261133426
11.607699999999998,7.970096972122228,0.0654415366041904
11.610108,7.982904764249386,0.0651893971417639
11.612492,7.99920490119018,0.0649079328858147
11.614871999999998,8.020719944437307,0.0645978461885067
11.617264,8.045168253990628,0.0642773809500028
11.619652,8.075111009104003,0.063916530057583
11.622028,8.11054820977743,0.0635169296636539
11.624423999999998,8.149989611943692,0.0630982171378854
11.626811999999996,8.183704251124421,0.0626977943249142
11.629207999999998,8.213274919185457,0.0623221984712101
11.631604,8.243497213552551,0.0619563834229122
11.633988,8.274790443106285,0.061584000210502
11.636367999999996,8.305664363779437,0.061228564456151
11.638772,8.34240481706498,0.060854246409834
11.64116,8.37500129923083,0.0605032102182967
11.643539999999998,8.407877320650398,0.0601443160267179
11.645936,8.438983558749028,0.0598207254839156
11.648324,8.463943724981547,0.0595283709619455
11.650703999999998,8.4808954882284,0.0592698316481494
11.653108,8.500780517781447,0.0590023294798078
11.655492,8.518663446588077,0.0587433384553908
11.657871999999998,8.531331469088375,0.0585113355308435
11.660268,8.538644815655477,0.058312310077714
11.662651999999998,8.541814191102889,0.0581340491285519
11.665048,8.543121235430743,0.0579582906710625
11.667444,8.543357344571959,0.057789460870798
11.669832,8.53944948259348,0.0576403278386728
11.672211999999998,8.535681390241862,0.0574862526609286
11.674616,8.536708895315996,0.0573224017507815
11.677004,8.540809436323185,0.0571460665806272
11.679384,8.5434669550914,0.0569570563118223
11.681783999999997,8.544262142740056,0.0567697059493995
11.684172,8.54626803520221,0.0565719521181807
11.686552,8.543338560611755,0.0563888795545668
11.688955999999996,8.53933815083466,0.0562106637014939
11.691343999999996,8.532916331430568,0.0560539097505917
11.693724,8.528915921653473,0.0558765004437558
11.696127999999998,8.52877994374235,0.055690889431546
11.698515999999998,8.528643965831229,0.0555045294045125
11.700896,8.52771659198719,0.0553144283351671
11.703291999999998,8.527580614076067,0.0551283055109822
11.705675999999997,8.530517672098,0.0549294751704094
11.70806,8.530381694186879,0.0547417796958736
11.710463999999998,8.533318752208812,0.0545423659063429
11.712847999999996,8.535324644670967,0.054343226045845
11.715228,8.53118446526701,0.0541674760523183
11.717631999999998,8.529046386609473,0.0539854036440325
11.720019999999998,8.529562035004407,0.0538069106396634
11.722399999999997,8.526353021160233,0.0536315479596227
11.724795999999998,8.519000036196362,0.0534733586180277
11.727183999999998,8.513509382352046,0.0533139011295991
11.729564,8.512814325933485,0.0531469283788162
11.731959999999996,8.509186003208727,0.0529863542742121
11.734347999999995,8.506628615670607,0.0528198819520617
11.736728,8.511148465558378,0.0526306917998681
11.73912,8.518089725073144,0.0524213364642606
11.741508,8.521026783095078,0.0522243415799485
11.743883999999998,8.5202391788779,0.0520292301784103
11.74628,8.524386941713333,0.051822798342306
11.748663999999998,8.527323999735266,0.0516263865021992
11.75106,8.52932989219742,0.0514302279031197
11.753452,8.533617424659715,0.051219733806118
11.75584,8.542188697868562,0.0509878565700028
11.758219999999998,8.544474129584438,0.0507817153684794
11.760624,8.551555158726066,0.0505697992955878
11.763008,8.563851094174023,0.0503361277711131
11.765387999999998,8.572003058502288,0.0501178448074377
11.767784,8.574428259845027,0.0499061212103919
