Time,Force,Position
9.850364,2.639376136818325,0.1840280901449814
9.85274,2.788698692135678,0.1822190984049864
9.855144,2.9241954295410864,0.1809570762283456
9.857532,3.0565284790726905,0.1795662795918965
9.859912,3.182439709200203,0.1778898888283824
9.862304,3.294432573617152,0.1767095850918384
9.864692,3.4023778064287638,0.1753970234276121
9.867084,3.497707926141928,0.1743940050903297
9.869479999999998,3.588199018316835,0.1732022764015606
9.871868,3.669055485527736,0.1719487354444576
9.874248,3.740556867028346,0.1706906009801808
9.876651999999998,3.8005612924453938,0.169595275265375
9.879036,3.8496731662566903,0.1686929777823931
9.881416,3.89324716439543,0.1677189348417159
9.883819999999998,3.930584438727311,0.1667393282456178
9.886207999999998,3.963267781118169,0.1657248567023302
9.888588,3.984032962687012,0.1650699261008859
9.890992,3.996230662762747,0.1647743338957677
9.893375999999998,4.006798349144403,0.1645791788651866
9.89816,4.016340426309795,0.1645595187711365
9.900543999999998,4.019878097093804,0.1645380067240501
9.902924,4.035568141983176,0.164097270255899
9.905328,4.05102586944707,0.1636292411429579
9.907716,4.072629668777075,0.1629728440933553
9.910095999999998,4.093581841801021,0.1623042185288984
9.9125,4.107736316652799,0.1618465203964789
9.914884,4.1246842881839125,0.1613085650611423
9.91726,4.13827968452825,0.1609039987460159
9.919655999999998,4.15667067829834,0.1603571614454319
9.922043999999998,4.175201441695289,0.1597974641600255
9.924424,4.191310795465242,0.1593414563519648
9.92682,4.210493185168248,0.1587877411375224
9.929204,4.227905791550317,0.1583465491568242
9.931599999999998,4.244387232372606,0.1579319500378163
9.934004,4.259146111702199,0.1575570754965891
9.936388,4.271530803233037,0.157218144842181
9.938767999999998,4.282100385472562,0.1568550969057177
9.941164,4.293089276592667,0.1564516048874305
9.943552,4.304590024391971,0.1560626716749038
9.945935999999998,4.320467060736446,0.1555719306316565
9.948336,4.338346197827337,0.1550232516900135
9.962668,4.353660363948632,0.1549851774273316
9.965051999999998,4.356406638799724,0.1549828613840063
9.967432,4.360363618464315,0.1549333348622872
9.969827999999998,4.366322698875322,0.1548274582787135
9.972212,4.378055764100103,0.1545131334273078
9.974607999999998,4.38606416708577,0.1542886899088134
9.977004,4.39342094376538,0.1540608787525149
9.979392,4.403571217124323,0.1537707162275361
9.981768,4.415444051975964,0.1534525580744711
9.984163999999998,4.428480369812861,0.1531535157882054
9.986551999999998,4.444030645075372,0.1528134119190386
9.988948,4.45981323776336,0.1525132800766824
9.991348,4.479460262317322,0.1521210251887925
9.993736,4.499526595751865,0.1516963975313622
9.996116,4.515448958066713,0.1513917107145202
9.99852,4.531511090008422,0.1510743544378398
10.000904,4.545850660457433,0.1507810756846419
10.003284,4.567779325011532,0.1503055583765675
10.005688,4.589707989565631,0.14984332084107
10.008076,4.614430150799065,0.149320648026611
10.010452,4.647672571697364,0.148607962058594
10.012859999999998,4.67705056072969,0.1479920070467968
10.015244,4.707080176068073,0.1473986803503358
10.017624,4.734828151406319,0.146885336692775
10.02002,4.755219350064956,0.1465826716348343
10.022408,4.777053570962569,0.1462739560732961
10.024788,4.800750122979738,0.1459282108346073
10.027191999999998,4.8233757398102695,0.1456203073260238
10.029576,4.8413455288419085,0.1454063645340392
10.031956,4.857872295634573,0.1451959364800091
10.034352,4.875469997613875,0.1449580057322993
10.036736,4.89842237552637,0.1445781985106694
10.03912,4.916439386386252,0.1443158464996473
10.041524,4.937110124298609,0.1440178416544366
10.043908,4.96192483333066,0.1436145136291353
10.046288,4.987530938295629,0.1432051617536464
10.048692,5.022216381432904,0.1425898643471768
10.051076,5.051175061584648,0.1420972812126535
10.05346,5.072265108377588,0.1417734709048508
10.055852,5.091632593677828,0.1414769762834113
10.05824,5.10392284155218,0.1413478026793422
10.060619999999998,5.120217290919366,0.1411300571461028
10.06302,5.130784977301023,0.1410259138393527
10.065408,5.142423598869317,0.1408946732425236
10.067787999999998,5.158066421930446,0.1406729885704761
10.070192,5.173337157939237,0.1404262930664495
10.07258,5.189027202828608,0.1401524157585288
10.07496,5.2012721247325855,0.1399246341657703
10.077352,5.218592183316036,0.1395818987988868
10.079736,5.235772472272628,0.1392477323401525
10.082132,5.251881826042578,0.1389437366119637
10.084528,5.261333251267221,0.1387701807094451
10.086916,5.27534795649214,0.1384720646428818
10.089296,5.281633797985111,0.1383238926528409
10.091692,5.286197077985386,0.1381989043274202
10.09408,5.29103989723938,0.1380543630343187
10.09646,5.289364557574928,0.1380208636948475
10.098852,5.289319231604553,0.1379220231569032
10.10124,5.295280207873431,0.1376982377340613
10.103636,5.300170248955668,0.1374998499980643
10.106032,5.309623570038181,0.1371797568021496
10.108416,5.314421063321801,0.1369382571236821
10.110796,5.3216399662324205,0.136624486923069
10.113203999999998,5.327415846904064,0.136312357432764
10.115588,5.332120792389067,0.1360266175827346
10.117968,5.337756903433849,0.1357264657461628
10.120371999999998,5.340319978545575,0.1354930845462478
10.122756,5.34488515440372,0.1352184623788344
10.125136,5.3450268198884485,0.1350550053997296
10.127528,5.345168485373177,0.1348909668352501
10.129916,5.343727358992071,0.134737695610805
10.132308,5.343636707051323,0.1345388045210483
10.134712,5.337260213617604,0.1344819752249881
10.137095999999998,5.336750252796277,0.1343126733232739
10.153816,5.287734718499335,0.1342817321139557
10.156211999999998,5.282381938424012,0.1342529899416037
10.158596,5.277541015027886,0.1342386740801865
10.160976,5.275074279430513,0.1342090994080435
10.163379999999998,5.274749414206419,0.1341303410619192
10.165767999999998,5.274424548982326,0.1340518666684331
10.168148,5.2753103885717305,0.1339391392749592
10.170552,5.27791878965383,0.1338079004038121
10.17294,5.285881866669125,0.1335567444897664
10.17532,5.294776109244197,0.1332905381767726
10.177715999999998,5.306743387752325,0.1329637000939837
10.180103999999998,5.317220422193233,0.1326897054805178
10.182484,5.332632823686752,0.1323237525056809
10.184879999999998,5.346322663687575,0.1319796987419959
10.187267999999998,5.363085539621453,0.1315778644183897
10.189648,5.384132156301887,0.1310824051092973
10.192052,5.412256010408208,0.130444693642963
10.194435999999998,5.439448698954752,0.1298207130751802
10.196816,5.465849991568379,0.1292048983951528
10.19922,5.489829874555007,0.1286590071539272
10.201607999999998,5.513669987914775,0.1281202194555423
10.203988,5.531643568662154,0.127685805303407
10.206383999999998,5.55054831496931,0.127241145458426
10.208768,5.568661665343548,0.1268047849286606
10.211148,5.581560109411454,0.1264738254457427
10.213544,5.592316683106083,0.1261892601623194
10.215932,5.605866753480047,0.1258675382485642
10.218312,5.618485658294232,0.1255623396203358
10.220704,5.626820822361863,0.1253492588232581
10.223092,5.639020418295468,0.125077442501111
10.225484,5.646796503855657,0.1249038489642234
10.22788,5.655783294229345,0.1246983033166437
10.230268,5.663978688670117,0.1244986142731369
10.232648,5.672825709416944,0.1243053811564897
10.235051999999998,5.6765975934843,0.1242035406850583
10.237436,5.677156671991741,0.1241671667406871
10.23982,5.676644815312543,0.1241524690910467
10.242219999999998,5.677203893819983,0.1241163453839464
10.244607999999998,5.677762972327425,0.1240802924639508
10.246988,5.679020898969167,0.123999212822198
10.249384,5.683491631170825,0.1238549074485677
10.251772,5.69611053598501,0.1235708807197741
10.254148,5.704353152254025,0.1233290129119189
10.256552,5.709662502216843,0.1231318827816592
10.25894,5.720326528112853,0.1228292400892733
10.261316,5.733411963635862,0.1224671383232358
10.263716,5.742493197666038,0.1221729446182734
10.2661,5.752505597255992,0.1218693640374918
10.268496,5.762797536099665,0.1215466234618664
10.270891999999998,5.7707152871445855,0.1212371280707941
10.273279999999998,5.783056548562919,0.1208376388077645
10.27566,5.796748284421612,0.1204027508340973
10.278064,5.810579789907164,0.1199626320031109
10.280452,5.823759669086659,0.119518027204799
10.282832,5.842433993826207,0.1189679747701231
10.285236,5.862179253752394,0.118397251066317
10.28762,5.884206153678719,0.1177860332520351
10.290003999999998,5.9070244495379605,0.117175190200733
10.292408,5.932636242076536,0.1165380425385808
10.294792,5.955314768308919,0.115939940989472
10.297171999999998,5.976642820100941,0.1153831875067423
10.299576,5.989822699280437,0.114956578063244
10.301964,6.005796075139268,0.1144970074603644
10.304339999999998,6.022048990251817,0.1140171577999767
10.306748,6.036299804617952,0.1135703683652661
10.309132,6.050550618984085,0.1131272786013289
10.311512,6.063730498163581,0.1126998617510985
10.313908,6.073325484730822,0.1123062033096431
10.316296,6.087064442417759,0.1118494420649155
10.318675999999998,6.096519659358139,0.1114661792573429
10.321072,6.102762070738606,0.1111396163309371
10.32346,6.107374468424994,0.1108656762701913
10.371252,6.072182856182129,0.110781222422746
10.37364,6.092154745960184,0.1106929880936433
10.37602,6.112778262044299,0.1106118774335798
10.378424,6.139268310740802,0.1104598642069818
10.380808,6.169902330557,0.1102501213177057
10.383188,6.2062631133587285,0.1099766391660454
10.385584,6.2497011335863455,0.1096136578478253
10.387968,6.290857513813826,0.1092919803772708
10.390347999999998,6.330011793294889,0.1090018018421605
10.392752,6.364742562402538,0.1087859381355044
10.39514,6.399752870763909,0.1085551649757857
10.397519999999998,6.430107351326387,0.1083710167417218
10.399924,6.460089744836528,0.1081704617314398
10.402312,6.4856958498014965,0.1079976151587064
10.404687999999998,6.514002903647184,0.1077631875426381
10.407092,6.545150676000449,0.107462989365423
10.40948,6.577928462047793,0.1071170399141517
10.41186,6.61019439141594,0.106757391229396
10.414263999999998,6.644090334478166,0.1063551194362448
10.416652,6.680407687167389,0.1059114752920835
10.419032,6.714722939110196,0.1054933476905371
10.421428,6.743451197694334,0.1051287104829768
10.423816,6.771527829972413,0.1047582948691135
10.426196,6.79466909519788,0.104444937262462
10.428592,6.811804058184096,0.1042025640337925
10.43098,6.827356229304478,0.1039639257789478
10.43336,6.833037666319634,0.1038325711318967
10.435756,6.843002844081344,0.1036424046412082
10.438144,6.852735704417577,0.1034257544973984
10.440523999999998,6.866100679194306,0.103143124033617
10.44292,6.878814027664977,0.1028547471318008
10.445303999999998,6.894600412068703,0.102530534178869
10.4477,6.906522364606458,0.1022454279120558
10.450096,6.923519453823683,0.101903402930766
10.45248,6.938514442294492,0.1015854321105259
10.454859999999998,6.949225690018746,0.1013264499611253
10.457264,6.959145541810083,0.1010688672595074
10.459652,6.96920516322828,0.1008048039189435
10.462032,6.976331518340282,0.1005698105143568
10.464428,6.981455772705866,0.1003574819946637
10.466816,6.9862079400191135,0.100124434674494
10.469195999999998,6.990028941772582,0.0998973841473082
10.471592,6.993989713152911,0.0996637099143343
10.47398,6.9965074622942645,0.0994218024514047
10.476359999999998,7.000655225129696,0.0991374524638852
10.478756,6.998936455352739,0.0989074677793287
10.481139999999998,7.002432591882112,0.0986135516020831
10.483536,7.000481504679677,0.098354930691682
10.485939999999998,6.996248777477105,0.0981312044211955
10.488328,6.988943014341476,0.0979418192273016
10.490708,6.979774920086292,0.097765677719335
10.493111999999998,6.965950998032216,0.0976234170858939
10.495496,6.951056140791501,0.0974945367726697
10.497876,6.92750125425906,0.0974411539190779
10.500272,6.904225906980341,0.0973723511642895
10.50266,6.880019394141843,0.0973103785168414
10.50504,6.855673111676485,0.0972542488912158
10.50744,6.831606368464849,0.0971826605877737
10.509824,6.808470790812988,0.0971035654119545
10.512208,6.782681486108655,0.097036510956623
10.514604,6.759825447710516,0.0969408170608552
10.516992,6.739111279685654,0.0968173283695021
10.519376,6.71946804684743,0.0966794217843516
10.521772,6.702618310688542,0.0965212982736296
10.52416,6.688282531955268,0.0963570198171896
10.52654,6.679813285834385,0.0961393459564625
10.528944,6.669202169340224,0.095948312023425
10.531332,6.661105010271678,0.0957511840506948
10.533712,6.652216455270215,0.095552784878799
10.536115999999998,6.6466804754555255,0.0953066009651406
10.5385,6.64607986269345,0.0950150367933574
10.54088,6.649203912170487,0.0946975857923488
10.543283999999998,6.652467731274384,0.0943715242411339
10.545668,6.665602284483505,0.0939534974193215
10.548048,6.67524449287899,0.0935884651478691
10.550451999999998,6.6890306723941695,0.0931779052795424
10.552839999999998,6.6996040463494335,0.0928057865351399
10.55522,6.7068248451179215,0.0924800461501882
10.557615999999998,6.71404564388641,0.0921548869551706
10.56,6.721778299334096,0.0918435951561004
10.562384,6.726158379595005,0.0915805532047048
10.564787999999998,6.728396589482638,0.09134379711197
10.567171999999998,6.728353159370133,0.0911409565398456
10.569552,6.731242995563823,0.0909138113743257
10.571948,6.73012863026468,0.0907252292372031
10.574336,6.730876596085094,0.0905258170655251
10.576716,6.736559928958119,0.0902841580752467
10.579119999999998,6.74517652813734,0.0900196442410434
10.581507999999998,6.75938012067523,0.0897221213318488
10.583884,6.7738160306385975,0.0894556392641159
10.586284,6.784107969482272,0.0892336901399629
10.588672,6.793189203512447,0.0890314706893482
10.591052,6.804644625341377,0.0888327907886378
10.593448,6.809394896796754,0.0887219409210466
10.595836,6.820011700864523,0.088564782393136
10.59822,6.827136160118656,0.0884582482086813
10.600616,6.838264820865621,0.0883159988814397
10.603,6.853118143851701,0.0881512373418344
10.605384,6.868623093143838,0.0879952372236889
10.60778,6.8839882728091135,0.0878451635810659
10.610164,6.901355553220808,0.0876775224682615
10.61256,6.923378661431392,0.0874833814220537
10.614955999999998,6.9476834096421145,0.0872588645743308
10.61734,6.969054891546642,0.0870599567192111
10.61972,6.991637078264668,0.0868414049941132
10.622123999999998,7.01156553793022,0.086634663909944
10.624511999999998,7.027489796102938,0.0864644846182745
10.626892,7.0374077520364064,0.0863452701643096
10.629288,7.041459175357483,0.0862705241853844
10.631676,7.041925706066306,0.0862095432168697
10.634056,7.044254567894687,0.0861384762031422
10.636459999999998,7.0468629689767885,0.0860542902217456
10.638844,7.052963714872525,0.0859233379354797
10.641224,7.0646986759551735,0.0857223401469294
10.64362,7.073919679612208,0.0855245459224168
10.646008,7.083420222522964,0.0853130858740283
10.648403999999998,7.095202405433858,0.0850746864111164
10.650799999999998,7.107403897225332,0.0848182231792435
10.653183999999998,7.118953762710746,0.0845543563527462
10.655564,7.136137843383076,0.0842247229015576
10.65796,7.152810067376207,0.0838821937761122
10.660348,7.166688794690003,0.0835552750176515
10.662728,7.1793568171903015,0.0832466787836836
10.665124,7.1896034300636025,0.0829714012973399
10.667512,7.203854244429736,0.0826675847056761
10.669907999999998,7.218756685101927,0.0823731534964414
10.672304,7.230725859467924,0.0820969683483876
10.674687999999998,7.248189479393972,0.0817613573102847
10.677072,7.26793473932016,0.0813976446527346
10.679467999999998,7.292615366298958,0.0810012349036726
10.681855999999998,7.314362726971562,0.0806237707762876
10.68424,7.333968217270888,0.0802668970680548
10.686635999999998,7.348358801263882,0.0799590911946948
10.689023999999998,7.357674248577404,0.0796924011853119
10.6914,7.369643422943401,0.0794214070776009
10.693796,7.38668773398887,0.0791136420144937
10.696184,7.400659009101284,0.0788326978013181
10.698568,7.416352845706394,0.0785526237916855
10.700964,7.432977847871283,0.0782698640673479
10.703352,7.44196653410284,0.0780632995152578
10.705747999999998,7.451467077013596,0.0778719606907585
10.708144,7.46231809436471,0.0776597327041249
10.710532,7.473169111715824,0.0774477582196891
10.712911999999998,7.486581308320797,0.0771977748749958
10.715308,7.497572095298772,0.076981077304053
10.717695999999998,7.50642101190347,0.0767835741306235
10.720076,7.521555770001139,0.0765352856826164
10.722471999999998,7.532127248098532,0.0763376269022067
10.724859999999998,7.544281518061762,0.0761459272226505
10.72724,7.550289716158883,0.0759990697404009
10.729639999999998,7.558300015002418,0.0758389584929285
10.732027999999998,7.570594054592509,0.0756416522631213
10.734408,7.582096698249682,0.0754410870631139
10.736812,7.59411119858605,0.0752539417223988
10.739195999999998,7.602121497429588,0.0750934479873035
10.74158,7.603985724407014,0.0749780628713637
10.743971999999998,7.604499476944082,0.0748838158146163
10.74636,7.602079963174954,0.0748060019384883
10.748755999999998,7.598449744592327,0.0747434116809846
10.751152,7.599103266756254,0.0746435903031837
10.75354,7.598685853733544,0.0745531696954793
10.755919999999998,7.598500758136309,0.0744892151737565
10.758324,7.60124892884527,0.0744099320434437
10.760708,7.607581992166484,0.0743243494400829
10.763087999999998,7.612704350674199,0.0742535657283395
10.765484,7.619968579555193,0.0741647990955497
10.767872,7.625463025115246,0.0741146661282557
10.770252,7.637894938474327,0.0740260013318091
10.772656,7.647253815900352,0.0739581952157355
10.77504,7.665552261871825,0.0738406661500864
10.777419999999998,7.68757537008241,0.0737122511217897
10.779824,7.709039399785555,0.0736080390889621
10.782212,7.737301127660868,0.0734735693917252
10.784591999999998,7.771848697029153,0.0732951915667731
10.786988,7.806396266397437,0.0731161433361396
10.789371999999998,7.844668498004833,0.0729255014265512
10.791755999999998,7.889226571105201,0.0726922136616252
10.794152,7.93392441383243,0.0724544153277629
10.796535999999998,7.976759925440103,0.0722214522237154
10.798932,8.021317998540471,0.071991125209406
10.801328,8.067086776454339,0.0717480564719613
10.803716,8.111272762502368,0.0715003794482467
10.806095999999998,8.152665251871065,0.0712635754294789
10.808492,8.193266345306842,0.071028432213798
10.81088,8.23684792687706,0.0707467892767034
10.813259999999998,8.27884671658144,0.0704608610555265
10.815664,8.317400383300427,0.0701744755010924
10.818052,8.350367056660744,0.0699062744143018
10.820431999999998,8.383892808528504,0.069616279644639
10.822828,8.410109005544893,0.0693441968510869
10.825212,8.434230554016251,0.0690562205370093
10.827595999999998,8.455977914688855,0.0687604809235689
10.829992,8.473209217189426,0.0684741720111215
10.832375999999998,8.48513306558505,0.0681934206596229
10.834772,8.49854715804789,0.0678898659837617
10.837168,8.511868702712114,0.0675593886343829
10.839556,8.516530218084615,0.0672592533740437
10.841936,8.520540107151056,0.0669510267617459
10.84434,8.531906772897107,0.0665995401471723
10.846728,8.541039020471263,0.0662356028471699
10.849108,8.551661512112641,0.0658517003142991
10.851504,8.56205168632854,0.0654448699568918
10.853892,8.57286116942502,0.0650238226991018
10.856272,8.581296464722744,0.0645956813971782
10.858668,8.585587788900773,0.0641904234454937
10.861056,8.593091918638722,0.0637665380089701
10.86344,8.603017458003666,0.0633192271785356
10.865832,8.612291371062552,0.0628628489356726
10.86822,8.623567384867856,0.0623992420244288
10.870599999999998,8.6334929242328,0.0619502522715682
10.873,8.63885518359747,0.0615370993166317
10.875388,8.645288378148777,0.0611177003847473
10.877767999999998,8.649719471953668,0.0607060137949849
10.880164,8.654662422437758,0.0603080239850019
10.882552,8.656532336988791,0.0599234341230569
10.884935999999998,8.65490990672619,0.0595678951116639
10.887332,8.658083073889337,0.0591997600392067
10.889715999999998,8.663630428851244,0.0588434015655469
10.892116,8.661169380827477,0.0585184150965415
10.894512,8.655495527243797,0.0582111789272876
10.8969,8.64232512735365,0.0579461765326499
10.89928,8.631528915262255,0.0576925306597288
