Time,Force,Position
8.729676,2.920844341247184,0.1814151894401226
8.732056,3.093631131156229,0.1784413773128966
8.734452,3.2542693386756514,0.1757215795189136
8.736839999999999,3.404668516753251,0.1729074771841944
8.73922,3.539473989455836,0.1706642724732016
8.741624,3.663993210888352,0.1687340978699943
8.744012,3.775617779968703,0.1672574948346844
8.746395999999999,3.8784916678165806,0.1659200659727416
8.748792,3.9699611473795104,0.164817782104983
8.751176,4.04523062123174,0.1640607285798183
8.75356,4.108304290866103,0.1635157905082131
8.755956,4.163558444827773,0.1629699499920988
8.758344,4.2162552112513225,0.1621259239462121
8.760728,4.25694316491211,0.1613201970431638
8.763124,4.282828809130798,0.1606441476211507
8.770287999999999,4.270821892225905,0.1604353308552473
8.772675999999999,4.268729139538741,0.160250717858048
8.78224,4.2504382769987465,0.1600648168366878
8.784644,4.253930621812383,0.1599282931802717
8.787032,4.2628701903578285,0.15966238024892
8.789411999999999,4.268317414089639,0.1595332972927704
8.791808,4.277489300060562,0.159310000971431
8.794196,4.287452581964403,0.1590780275005294
8.796576,4.296764237562186,0.1588440247038095
8.79898,4.310406855734767,0.1583957959161837
8.801368,4.3186022501755374,0.1580757896881666
8.803747999999999,4.327077183870028,0.1577316002024424
8.806144,4.333782334243579,0.157491229180848
8.808532,4.34551539946836,0.1571676133581304
8.810912,4.361996840290649,0.1567887607992945
8.813316,4.38695131894956,0.1562533596150285
8.8157,4.421170231378012,0.1555629754821824
8.818083999999999,4.453200051604943,0.1550162258732954
8.820476,4.480526822204739,0.1546542137850892
8.822864,4.507993362431397,0.1542848701618731
8.825244,4.535739441911774,0.1538822339902483
8.827648,4.561530642473977,0.1534676753236261
8.830036,4.5895109352377,0.1529317727305394
8.832419999999999,4.614185874642891,0.1524615816396242
8.834816,4.636626395876188,0.1520152895693055
8.8372,4.6608367004304245,0.1514741723193886
8.83958,4.68067071643949,0.1510140714474075
8.84198,4.699573566888777,0.1505775160310729
8.844368,4.72033874845762,0.1501032621963667
8.846748,4.742267413011719,0.1496579500777544
8.849143999999999,4.767920739804931,0.1491278599487891
8.851531999999999,4.793574066598143,0.1486020636272382
8.853912,4.82216065969755,0.1480132809353112
8.856311999999999,4.8478139864907615,0.1475051692454576
8.858696,4.868579168059606,0.1470617802755697
8.86108,4.887017383657939,0.1465891987047947
8.863476,4.89684279179279,0.1462516279192341
8.865864,4.903502616195967,0.1459406456408678
8.868248,4.912071993546944,0.1455330298218216
8.870643999999999,4.92185207571142,0.1450892366369315
8.873032,4.93549658974187,0.1445615921713805
8.875411999999999,4.95295831381005,0.1440087129522155
8.877811999999999,4.970512585676846,0.1435170333704029
8.8802,4.986436843849565,0.1430994221365322
8.882579999999999,5.002733189074619,0.1427105464825308
8.884979999999999,5.017818829486177,0.1423613694279995
8.887368,5.037560297696625,0.1419257795938908
8.975776,5.011172276088082,0.1414835580865712
8.978176,5.010660419408885,0.1414687499683822
8.980564,5.015595786461497,0.1413664759296447
8.982944,5.021602088700749,0.1412381008871763
8.985344,5.034406089112168,0.1409768498189016
8.987727999999999,5.050283125456643,0.140648373479539
8.990112,5.066719240308558,0.1402779341713592
8.992504,5.079710232175081,0.1399466867026377
8.994892,5.089907727362268,0.1396637393049319
8.997271999999999,5.106251294415567,0.1392378625022169
8.999668,5.126319523707978,0.1387497186387535
9.002056,5.1448975089331705,0.1383182950758457
9.004436,5.167339926024337,0.1378197938481565
9.006839999999999,5.189363034234923,0.1373497593824343
9.009228,5.212549625430764,0.1369007667270752
9.011608,5.2375985477461615,0.1364147697488779
9.014004,5.263997944501918,0.1358885248611091
9.016388,5.290816650138254,0.1353432574454595
9.018772,5.318613743162613,0.134733923722934
9.021168,5.343896878761357,0.134158820566759
9.023552,5.3661542002552896,0.1335963708697059
9.025952,5.385525477271269,0.1330437695065061
9.028344,5.40014837868974,0.1325242609048997
9.030732,5.412769179361795,0.1320442685224331
9.033112,5.421665317794735,0.1316277248867124
9.035508,5.4276281899214815,0.1312652672129061
9.037896,5.435872702048364,0.1308484736844626
9.04028,5.452125617160915,0.1302825589422518
9.042676,5.473453668952938,0.1296210717246149
9.045064,5.492919389625403,0.1289925463520602
9.047444,5.508008821752698,0.1284165781778265
9.04984,5.5259389723875705,0.1277485408059088
9.052228,5.536140259290496,0.1272088350634826
9.054608,5.545829689514226,0.1266510301049368
9.057008,5.552353536006282,0.1261077557094957
9.059392,5.555851568393526,0.1255677940877465
9.061788,5.554554003355018,0.1251055382701112
9.064184,5.55162642462243,0.1247068106079075
9.066572,5.547999997755542,0.1243566886241773
9.126292,5.420409636247837,0.1241154229200226
9.128688,5.431256861883213,0.1240322245037707
9.131076,5.440101986772174,0.1239841947415862
9.133472,5.450809442780689,0.1239098297690908
9.135868,5.466964122521016,0.1237678033207464
9.138252,5.486191838194396,0.1235688264389753
9.140632,5.509423755360611,0.1232992772640133
9.143032,5.535077082153824,0.1229684388540585
9.14542,5.559147617081201,0.1226445543602203
9.1478,5.576699993090129,0.1224137195860831
9.150196,5.588013749434328,0.1222548721536049
9.15258,5.599467275405389,0.1220902014425945
9.154976,5.610548714324112,0.1219055097129418
9.15738,5.620838757309916,0.1217264702929441
9.159764,5.633782527348195,0.1215216037327334
9.162144,5.654734700372142,0.1211876557463605
9.164544,5.678480370075424,0.1208217956243126
9.166928,5.709815133883792,0.1203612941417435
9.169308,5.7427326895579975,0.119902191825147
9.171712,5.781004921165395,0.1193499173952693
9.1741,5.823980202399927,0.118696643626357
9.17648,5.862579195089288,0.11809146621604
9.178876,5.905601698152063,0.1174059548196558
9.181264,5.947972574908782,0.116716082980947
9.183644,5.986386472000909,0.1160449070782908
9.186048,6.025079908346757,0.1153665875365818
9.188436,6.063913114319464,0.1146888152499114
9.190816,6.099673284359117,0.1140610985605071
9.193212,6.138226951078103,0.1134058576625794
9.1956,6.182367611155759,0.1126949187062067
9.19798,6.229953394218809,0.1119616803597945
9.20038,6.272743579856106,0.1112893056510369
9.202764,6.311250024746849,0.1106937802491766
9.205148,6.346962972958259,0.110130390564113
9.207544,6.382164064490469,0.1095573167285354
9.209928,6.411638393037151,0.1090541030817307
9.212308,6.43766759859844,0.1085761027969422
9.214708,6.453965839681365,0.1082179269878801
9.217096,6.469752224085092,0.1078500591363941
9.219476,6.481254867742265,0.1075533136009358
9.221872,6.4895447058395215,0.1073089508089116
9.22426,6.498625939869697,0.1070644399535009
9.22664,6.506216929832652,0.1068619316593638
9.229044,6.514739085355386,0.1066515525288012
9.231432,6.523353788676737,0.1064780703344857
9.233812,6.527684751251536,0.1063691860854646
9.236208,6.528942677893277,0.1063011189633878
9.238596,6.53527574121449,0.1061692591271252
9.240992,6.539746473416148,0.1060546634921122
9.243388,6.538630212259136,0.1059897920874915
9.245776,6.535791389609427,0.1059339116363074
9.248156,6.534814898079274,0.1058615914808382
9.250552,6.53625981617612,0.1057432017409406
9.25294,6.537704734272965,0.1056245230512876
9.255324,6.535145450876977,0.1055532949032163
9.25772,6.53710222565302,0.1054487888525945
9.260108,6.54078156192176,0.1053356237401922
9.262488,6.552189761922446,0.1051425127520579
9.264884,6.559314221176579,0.1050119732773652
9.267272,6.5673698459904895,0.1048736261642137
9.269656,6.576356636364178,0.104727779901555
9.272052,6.586554131551366,0.1045607374430204
9.27444,6.592235568566522,0.1044257481969488
9.27682,6.595403048156065,0.1042998087345735
9.279216,6.600060771812827,0.1041367435904304
9.281604,6.606860365842865,0.1039424777625765
9.284,6.6148706646864,0.1037253717877332
9.286396,6.61487256054427,0.1036012640108847
9.288784,6.615945391588777,0.1034622083688475
9.291164,6.616598913752704,0.1033445288331516
9.29356,6.616041731103133,0.1032494951731345
9.295948,6.617766188453698,0.1031168125327391
9.298328,6.618279940990764,0.103007080268421
9.300724,6.623589290953583,0.102852058027012
9.303112,6.632902842409235,0.1026510436093004
9.305496,6.6367691701330775,0.1024891359974994
9.307888,6.639844101924001,0.1023280667000444
9.310276,6.638682514796614,0.102183962975327
9.31266,6.639011171736447,0.1020025583528123
9.315056,6.636686101623806,0.1018363674506277
9.31744,6.632358930764747,0.101692624056169
9.319836,6.624027558412855,0.101593472031163
9.322232,6.620212244232993,0.1014638656364825
9.324624,6.619562513784806,0.1013333895981128
9.327004,6.61677091296334,0.1012324975373695
9.3294,6.612628837701516,0.1011609326138154
9.331788,6.610209323932388,0.1010817801336759
9.334172,6.615937982775787,0.1009070484279254
9.336568,6.620595706432548,0.1007475158549938
9.338956,6.628606005276085,0.1005365685087833
9.34134,6.6413193537467565,0.1002473869176463
9.343736,6.650959666284373,0.0999955768992172
9.34612,6.65966881326221,0.0997508354450236
9.348504,6.666655398747352,0.0995163381285887
9.3509,6.674712919419132,0.0992696433173569
9.353288,6.690639073449718,0.0989486878696764
9.355668,6.705354522666806,0.0986485116092723
9.358064,6.722723698936369,0.0983371656882631
9.360452,6.737811235205794,0.0980588509985894
9.362848,6.757042742594915,0.0977335913129956
9.365244,6.780697760357449,0.0973493246142918
9.367632,6.806354878866399,0.0969441658010395
9.370016,6.832850615136511,0.0965025257949445
9.372412,6.863258005100842,0.0959948698219013
9.3748,6.895155639132389,0.0954540358607516
9.37718,6.931244466111874,0.094829424118502
9.37958,6.966821436412161,0.0941964481969614
9.381968,6.997463039659835,0.0936136169516692
9.384348,7.031457218094285,0.0929916197849169
9.386744,7.066662101342235,0.0923563964952945
9.389136,7.096372539030132,0.0917937350239107
9.391516,7.128224847091306,0.0912079155943517
9.393912,7.16021692477934,0.0906146447743563
9.396304,7.185271534668346,0.0900796476617755
9.398688,7.208324043810934,0.0895660622391535
9.401084,7.220574653288521,0.0891409453252725
9.403472,7.234175737206467,0.0886903644479005
9.405856,7.243632850004718,0.0882824038157183
9.408248,7.262309070602135,0.0877888919524972
9.410636,7.2780520248933565,0.087320693340839
9.413016,7.28657797213183,0.0869228665162239
9.415416,7.295103919370303,0.0865256619674254
9.417804,7.2979956514218625,0.0862004311821255
9.420184,7.290317801233898,0.0859859564282847
9.422588,7.285433447725267,0.0857567287506917
9.424972,7.278499771641976,0.0855844351156637
9.427352,7.266211419625494,0.0854684582055218
9.429756,7.254994002795648,0.085340631662417
9.43214,7.241355176338807,0.0852478306872312
9.43452,7.224503544322049,0.0851879003847096
9.436924,7.2139377537982625,0.0850674495543713
9.439308,7.201230092901199,0.084968663428334
9.441688,7.192247094243248,0.0848511823171055
9.444092,7.190992959317245,0.0846839276526479
9.446476,7.189738824391242,0.08451675777773
9.448856,7.195934013943465,0.0843117391810723
9.45126,7.202641060174885,0.0841216067021429
9.453648,7.213492077526,0.083894606368841
9.456028,7.215915383010867,0.0837492254933443
9.458432,7.217500070734573,0.0836410140843804
9.46082,7.222529881443671,0.0835265092601837
9.463196,7.228071548831967,0.083426581454678
9.4656,7.239619518459515,0.0832806582807081
9.467988,7.256242624766533,0.0830912587723849
9.470368,7.267231515886639,0.082969600053136
9.47276,7.277289241446967,0.0828527348298782
9.475148,7.293213499619684,0.0826952047247826
9.503824,7.346286144811308,0.0826561623347412
9.506204,7.351593598916257,0.0826427316206333
9.5086,7.362535268208119,0.082565652406685
9.510984,7.372965080820784,0.0824746763300119
9.513364,7.3806013967541135,0.0823970386020692
9.515768,7.391962374926557,0.0823037787714477
9.518156,7.407607093845555,0.08216967843636
9.520536,7.425393683137829,0.0820161734891767
9.52294,7.440247006123908,0.0818812966184147
9.525328,7.4613861706029585,0.0816924709455781
9.527708,7.4846672054552865,0.0814827599303052
9.530112,7.51144058512125,0.0812319071333744
9.5325,7.541426770347129,0.0809500632882837
9.534876,7.569690394080311,0.0806705941411201
9.537272,7.593298190014601,0.0804109333824678
9.53966,7.61890808669531,0.0801378863596753
9.54204,7.639722385950265,0.0798916539901887
9.544444,7.662958094832218,0.0796161227822186
9.546828,7.688987300393507,0.0793312286622247
9.549208,7.712362778902321,0.0790518214451608
9.551604,7.733875926291578,0.0787806165423307
9.553988,7.755109534427114,0.0785225648826394
9.556384,7.772338941069817,0.0782952267771181
9.55878,7.790639282899159,0.0780596030917913
9.561168,7.808939624728501,0.0778247013071021
9.563548,7.821932512452892,0.0776011210895465
9.565944,7.833622147565167,0.0773629407653866
9.568332,7.843449451557887,0.0771328811409006
9.570708,7.856769100364242,0.0768647643783477
9.573112,7.862499655065511,0.0766299999715685
9.5755,7.8685097490205,0.0763841333149283
9.57788,7.872377972602212,0.0761574155413846
9.580284,7.874663404318088,0.0759261529731298
9.582672,7.878299310474323,0.0756746093078558
9.585052,7.887289892563749,0.0753786176076653
9.587456,7.891345107600565,0.0751092315663137
9.58984,7.897821732264378,0.0748102459807559
9.59222,7.900573694689077,0.074525377973592
9.59462,7.898809598941745,0.0742510150072058
9.597004,7.900258308754329,0.0739503761283131
9.599384,7.902917723380411,0.0736352883899707
9.601788,7.906415755767655,0.0732876693884975
9.604176,7.904978421102286,0.0729652833443214
9.606556,7.900607820130722,0.0726572225639504
9.608952,7.894374888039603,0.0723544129830147
9.61134,7.890004287068041,0.0720451902338117
9.61372,7.886285312402534,0.0717449100366199
9.616128,7.880704006617472,0.0714496903719745
9.618512,7.872841060832273,0.0711775174582193
9.620896,7.873126287659601,0.0708557162542473
9.623292,7.869407312994096,0.0705546565752024
9.62568,7.865828107955451,0.0702481380263494
9.62806,7.865321938849862,0.0699232359890724
9.630456,7.867469496796747,0.0695977571377697
9.632844,7.867475184370353,0.0692895972289876
9.635224,7.872416238996573,0.0689570055695995
9.63762,7.873073552876239,0.0686552446057544
9.640008,7.872380392315546,0.0683718211176973
9.642388,7.87247862768777,0.0680907517017465
9.644788,7.870434992686718,0.0678258874828034
9.647172,7.869182753618583,0.0675646749120498
9.649556,7.863507004177034,0.0673400691351406
9.651952,7.86090429066854,0.067096135914848
9.65434,7.859092973092966,0.0668546963620708
9.656736,7.860866548129644,0.0666097508003505
9.659132,7.861569187979683,0.0663726256329534
9.66152,7.859059022269808,0.0661588141669848
9.6639,7.85748002211971,0.0659421052337882
9.666296,7.852827986036557,0.0657425948219053
9.668684,7.844823374766627,0.0655728841557878
9.671064,7.843616461668868,0.0653768851251473
9.673468,7.844132110063805,0.0651828314988132
9.675856,7.841155413645105,0.065022887799277
9.678236,7.83524545092021,0.0648749936776429
9.680636,7.829055948941595,0.0647379838438735
9.683024,7.822075051030061,0.0645975018946273
9.685404,7.82030905942486,0.064425023128767
9.6878,7.821616103752714,0.064235795536097
9.690188,7.825716644759903,0.0640413647770037
9.692572,7.828606480953594,0.063859146487899
9.694968,7.830704921214367,0.0636737860562269
9.697352,7.83759895890089,0.063473825205046
9.699736,7.845144622893472,0.0632830602790641
9.702132,7.857905193192387,0.0630631344404466
9.70452,7.867220640505909,0.0628397446510024
9.7069,7.878398418938987,0.0626133893462886
9.709296,7.8918578373722035,0.0623671990692783
9.711684,7.908250522111614,0.0621116690464745
9.714076,7.9306495090902756,0.0618306449198611
9.716472,7.95132593457624,0.061548436826907
9.718856,7.968277697823092,0.0612742990311624
9.721236,7.980294094017332,0.0610185355010382
9.723632,7.992590029465292,0.0607516346020106
9.726016,8.005025734540114,0.0604800200458019
9.728412,8.017601209241793,0.060203442518879
9.730804,8.03217878468989,0.0599203024046316
9.733188,8.046476820884267,0.0596493631038872
9.73558,8.058493217078507,0.0593974722584379
9.737984,8.063851684727437,0.0591597430293109
9.740372,8.072422957936285,0.0589020325521943
9.742752,8.078712591144994,0.058662594574031
9.745144,8.084071058793926,0.0584256348607773
9.747532,8.090640231256355,0.0581774518289276
9.749912,8.091994497412452,0.0579576922084943
9.752308,8.096142260247884,0.0577344568661297
9.754692,8.098567461590621,0.0575085851864479
9.757072,8.102994763679773,0.0572762347047031
9.759468,8.108353231328705,0.0570446085398797
9.761852,8.1109182022983,0.0568172199406738
9.764248,8.115065965133732,0.056598377451036
9.76664,8.121727685394779,0.056387445507412
9.769028,8.131602211215741,0.0561577874967362
9.77142,8.14333906815626,0.0559267042764916
9.773816,8.15386522028328,0.055706946120548
9.776204,8.163460206850523,0.0554882106288398
9.778584,8.169702618230989,0.0552931034057144
9.780988,8.175945029611455,0.0550987383126114
9.783372,8.182466980245641,0.0548938586953502
9.785752,8.19965106091797,0.0546657635507921
9.788152,8.217626537523218,0.0544435261106651
9.79054,8.244821121927632,0.0541869434723924
9.79292,8.270293144839348,0.0539277450777127
9.795324,8.294554462937567,0.0536803177220004
9.797708,8.317884615476007,0.0534330275614519
9.800088,8.340004063200947,0.0531974011300238
9.802492,8.363706302791725,0.0529712642062075
9.80488,8.384987132755505,0.0527674645099695
9.807256,8.400261660480034,0.052582402990214
9.80966,8.416327584137479,0.0524026027658869
9.812048,8.43053117667537,0.052224076010394
9.814428,8.442872438093705,0.0520471835131357
9.81682,8.45386322507168,0.0518857040081631
9.819208,8.46192074574346,0.0517306484310963
9.8216,8.468907331228602,0.0515805533212648
9.824004,8.475614377460023,0.051440180481037
9.826388,8.48446329406472,0.0512891297173585
9.828772,8.493451980296278,0.0511338682443463
9.831164,8.507236263953589,0.0509727015906351
9.833552,8.51436261906559,0.0508204467954158
9.835932,8.522420139737369,0.0506689881022084
9.838336,8.521258552609982,0.050550124809725
9.84072,8.521679757348434,0.0504404127888445
9.8431,8.5228923580198,0.0503353886576672
9.845504,8.525967289810724,0.0502297062362031
