Time,Force,Position
11.341736,5.366441804359891,0.1566537175424268
11.370396,5.51445921120726,0.1563643464508347
11.372776,5.520790378670604,0.1563037585210349
11.375172,5.53531504471685,0.1561474907532143
11.37756,5.555239712666664,0.1559503341633048
11.37994,5.579680438788508,0.1556736545725822
11.382356,5.604121164910353,0.1553964355255205
11.38474,5.631914466218973,0.1550306134105719
11.38712,5.657845436408036,0.1546984639087116
11.38952,5.680610822865427,0.1543952323370104
11.391908,5.70463413596456,0.1540068251395781
11.394304,5.722558599025826,0.1537101888557276
11.396696,5.737969104661476,0.1534461568453391
11.399084,5.759525682163238,0.1530428905646257
11.401464,5.783735986717474,0.1525950277351695
11.403868,5.803522780898296,0.1522662875974154
11.406256,5.8200967695192025,0.1520224184622399
11.40864,5.84211798187192,0.1516876451269226
11.411036,5.865442446836751,0.151357573133236
11.413424,5.886625041428305,0.1510834811354099
11.415804,5.9095774193408,0.1507296297851808
11.4182,5.926570716842287,0.1504574470543302
11.420588,5.936533998746128,0.1502944676670347
11.422968,5.946544502478212,0.1500865616717322
11.425368,5.953668961732345,0.1498894750045484
11.427756,5.961771808374499,0.1496306353723191
11.430136,5.970573503150953,0.1493271349175676
11.432532,5.9764419316212125,0.1490812045518592
11.43492,5.987525266397804,0.14872490590515
11.4373,6.002705350465846,0.1483281332802977
11.439696,6.014113550466534,0.1480403538119025
11.442084,6.030037808639252,0.147684097759218
11.444463999999998,6.049407189797362,0.1472860950137496
11.44686,6.065284226141837,0.1469837079823429
11.449248,6.085817090285203,0.146612318527629
11.451648,6.110354155921403,0.146164071704752
11.454044,6.132517033758848,0.1457319928360956
11.456428,6.153656198237899,0.1452842096503176
11.458808,6.171490009358416,0.144865812288833
11.461204,6.187741028613098,0.1444577110198221
11.463592,6.208415558241192,0.1439520307373504
11.465976,6.231231958242567,0.1433979355753505
11.468372,6.255259063057438,0.142812100742207
11.47076,6.273512183058537,0.1423711955681016
11.47314,6.290926685298475,0.1419835977023724
11.475536,6.304569303471054,0.1417020213861341
11.477924,6.318072152016773,0.1414313577388167
11.480304,6.333577101308912,0.1411255839917707
11.482704,6.346148784294854,0.140875047989334
11.485088,6.355275344295403,0.1406624673441153
11.487488,6.368034018736447,0.1403570381809653
11.489883999999998,6.378837814259318,0.1400431531808725
11.492271999999998,6.386895334931099,0.1397260808376052
11.494652,6.391927041498066,0.1394197658419441
11.497048,6.389649193213668,0.1392142482363678
11.499436,6.383646682690156,0.1390624905155388
11.501816,6.377644172166644,0.1389102564033947
11.504216,6.366286985709937,0.1388681534582714
11.5066,6.360516792611903,0.1387446135656865
11.516148,6.324488458465747,0.1387362412558428
11.518548,6.31610986428561,0.1387279633004726
11.520936,6.309221514172695,0.1386719897925764
11.523316,6.305825508873414,0.13853314161171
11.525719999999998,6.302848812454714,0.1383691597866741
11.528104,6.29721838898354,0.1382364791782217
11.530484,6.289446095139088,0.1381468299429363
11.532884,6.285538233160608,0.1379961065024184
11.535268,6.28121106230155,0.1378706166810822
11.53766,6.276976439241108,0.1377820738184862
11.540064,6.273765529539063,0.1377176436739438
11.542452,6.274511599501607,0.1376303965140656
11.544832,6.279494188382462,0.1375034963869047
11.547232,6.288061669875572,0.1373333982211807
11.54962,6.299282878421154,0.1371325758245377
11.552,6.317441554765766,0.1368171071313156
11.554396,6.335740000737237,0.1364991939637312
11.556784,6.352455654842874,0.1361936874229076
11.559164,6.3788097256282565,0.1357036848286515
11.561559999999998,6.409447537160192,0.1351330631507513
11.563947999999998,6.44595188130452,0.1344746477513305
11.566332,6.48031435507557,0.1338656531225082
11.568727999999998,6.512674728100202,0.1332906644688055
11.571115999999998,6.539820194818502,0.1328081922364513
11.573496,6.564404482282946,0.1323914176465399
11.5759,6.5893608567997255,0.1319937906940957
11.578283999999998,6.616039792809202,0.1315796511376803
11.580664,6.640437088818543,0.1312162267514415
11.583068,6.665905320014521,0.1308369347394386
11.585456,6.6917928600910805,0.1304340747008684
11.587836,6.718891104981138,0.130006646477016
11.59024,6.743615162072441,0.1295912974787194
11.592628,6.76596503136499,0.1291886566635944
11.595007999999998,6.7859407128587845,0.1287991621563582
11.597404,6.805124998419661,0.1284145579067181
11.599792,6.819513686554785,0.1280983079630073
11.602172,6.828687468383578,0.1278707430014177
11.604568,6.837721480585509,0.1276523380106056
11.606955999999998,6.840469651294471,0.1275412867270582
11.609336,6.84358990905577,0.1274510375775598
11.611731999999998,6.840843634204678,0.1274410778026022
11.614119999999998,6.8379575897267255,0.1274385934090043
11.6165,6.838935977114748,0.1273858930181647
11.618896,6.843127170062684,0.1272781557057468
11.62128,6.847737671891202,0.1271473067371882
11.623676,6.8550491226004375,0.126950444450482
11.626072,6.859986385510919,0.1267626900074994
11.62846,6.868415993235036,0.1265069162459232
11.630843999999998,6.873772565026098,0.1262984398370124
11.63324,6.880991467936717,0.1260702729709916
11.635623999999998,6.884345938981362,0.1258912603308272
11.638004,6.890633676332202,0.1256743314906439
11.640403999999998,6.902648176668572,0.1253911102989459
11.642788,6.919830361483032,0.1250724034982255
11.645172,6.938595338163328,0.1247496603002185
11.647567999999998,6.957080775589903,0.1244401820895725
11.649952,6.977847853016615,0.1240868107823333
11.652332,6.994470959323634,0.1237944394645301
11.654732,7.014027331936848,0.1234651703970468
11.657116,7.032000912684226,0.1231446827681703
11.659496,7.055329169364797,0.1227394008868481
11.661896,7.0780057997393095,0.1223309722696968
11.664284,7.097609394180767,0.1219696025870646
11.666664,7.117864614928282,0.1216142064917175
11.66906,7.139702627541634,0.1212543335053339
11.671448,7.159910626460905,0.1209431021600864
11.673828,7.184494913925349,0.1205995272124444
11.676228,7.201582655083322,0.1203726828024521
11.678612,7.218670396241295,0.1201447857205462
11.680996,7.233756036652851,0.1199448035508669
11.683392,7.250192151504766,0.1197129031802821
11.68578,7.263695000050486,0.1195178533072373
11.688159999999998,7.272262481543594,0.1193865115041328
11.690556,7.274731112998836,0.1192998111435921
11.692944,7.276176031095682,0.1191897688543033
11.695324,7.284046560312358,0.1189847314221646
11.697724,7.294058959902312,0.118749167924563
11.700107999999998,7.309426035425458,0.118433937099985
11.702488,7.322791010202186,0.1181447761692225
11.704883999999998,7.335085049792278,0.1178724109749256
11.707271999999998,7.344817910128511,0.1176541395552886
11.709652,7.354131461584164,0.1174565240711925
11.712048,7.3626536171069,0.1172605285566083
11.714436,7.37345741262977,0.1170286829644159
11.716816,7.381327941846447,0.1168289487797891
11.719212,7.388686614383927,0.1166178522750531
11.721604,7.392460394309151,0.1164349062172646
11.723984,7.4015888501675695,0.1161739879533504
11.72638,7.413790341959042,0.1158744630230833
11.728768,7.423849963377238,0.1156047646138875
11.731152,7.432931197407414,0.115381879304529
11.733548,7.441732892183869,0.1151719345222738
11.735936,7.449323882146824,0.1149840866121968
11.75508,7.457379506960734,0.1148432424498291
11.757468,7.456727880654676,0.1148381324181955
11.762248,7.454633232109643,0.1148292367324682
11.764636,7.458405116176999,0.1147582097514513
11.767016,7.46497049692369,0.1146636076255154
11.769412,7.474469143976577,0.1145388105662436
11.7718,7.486901057335659,0.1143856727270867
11.77418,7.498122265881243,0.1142545463196547
11.77658,7.51842281259913,0.114023825664906
11.778968,7.545568279317431,0.1136918003885154
11.781348,7.575926551595646,0.11331870948705
11.783744,7.608706233500862,0.1129054357728008
11.786132,7.642324533167236,0.112456108119504
11.788512,7.674779349848356,0.1119884752169868
11.790928,7.706722309850278,0.1115043503381102
11.793311999999998,7.739875974665698,0.1109994422507567
11.795708,7.770143595003167,0.1104859592465103
11.798104,7.796034926795463,0.109998192396451
11.800492,7.818061826721787,0.109546126752299
11.802876,7.843953158514084,0.1090561858518173
11.805272,7.865048892880629,0.1086130891217589
11.80766,7.885073692060537,0.1081840717472342
11.810044,7.903887786426946,0.1077753543896529
11.81244,7.917626744113881,0.1074264671507864
11.814828,7.923636838068871,0.1071495006710144
11.817208,7.928064140158024,0.1068758553775713
11.819608,7.925833513701868,0.1066605705090172
11.821996,7.923370569820236,0.1064210354055593
11.82438,7.908383164780902,0.1062942732445526
11.826776,7.888320623062099,0.1062209423978408
11.829164,7.869608555783654,0.1061205456896393
11.831544,7.849965322945431,0.1060261514484836
11.833944,7.827249054174154,0.1059637730509604
11.836332,7.810119778761543,0.1058599049174192
11.838716,7.797786100774688,0.1057160580381885
11.841116,7.78638358834761,0.1055653479018482
11.8435,7.780940156331537,0.1053928231373357
11.84588,7.778010681741081,0.1052122959049056
11.848272,7.776431681590983,0.1050056435021633
11.85066,7.775783847000664,0.1047932095162604
11.853056,7.77685857390304,0.1045733961199456
11.855452,7.781006336738473,0.1043221632381007
11.857836,7.784502473267849,0.1040643144473981
11.860216,7.7879986097972225,0.1038059436768521
11.862619999999998,7.798432214125627,0.103482004777062
11.865008,7.80737557438681,0.1031895378706265
11.867388,7.822837093566444,0.10285223145012
11.869792,7.836668599051997,0.1025527294967406
11.872179999999998,7.857809659388916,0.1022051598681188
11.87456,7.880161424539334,0.1018406522029206
11.876955999999998,7.898229448943198,0.1015291823039026
11.879343999999998,7.913224437414007,0.1012486002754727
11.881724,7.929010821817732,0.1009669011273591
11.88412,7.938930673609068,0.1007374520029539
11.886508,7.945125863161294,0.1005338412835083
11.888888,7.952531757527016,0.1003131178715169
11.891288,7.955421593720708,0.100118418690502
11.893672,7.958451199541258,0.0999178059035976
11.896056,7.962923827600785,0.0997228243164162
11.898452,7.965534124540755,0.0995408262154027
11.90084,7.968144421480725,0.0993589321520499
11.90322,7.966610747301,0.0992195590629137
11.905624,7.969732900920168,0.099050380467566
11.908012,7.974065759352834,0.0988631278521987
11.910392,7.976396517039084,0.0986945515132401
11.912792,7.979658440285113,0.0985198309690773
11.915176,7.97733337017247,0.0983809995878614
11.91756,7.977150170433105,0.0982184922439037
11.919956,7.97766581882804,0.0980271141367235
11.922344,7.973897726476422,0.0978822782733927
11.924724,7.967987763751527,0.0977604679855537
11.927124,7.969666895131719,0.0975867699771184
11.929508,7.974279292818106,0.0973902950827943
11.931892,7.978891690504493,0.0971929091966341
11.934288,7.986297584870215,0.0969783080722802
11.936676,7.989419738489383,0.0968108119527491
11.93906,7.992541892108551,0.0966430910978904
11.941456,8.001390808713248,0.096437483468808
11.943844,8.010519264571668,0.0962202383310187
11.94624,8.020718655616724,0.0959924054437044
11.948636,8.033059917035057,0.0957429968442865
11.951019999999998,8.050616084759724,0.0954438810684151
11.9534,8.065378755805055,0.0951629455777311
11.955804,8.080793053156443,0.094889358765423
11.958192,8.099140616814028,0.0945962542638272
11.960572,8.11883865491197,0.0942815997135377
11.962967999999998,8.143332290435668,0.0939367603755778
11.965355999999998,8.16861732189228,0.0935948470660252
11.967736,8.190410008535258,0.0932984174599233
11.970128,8.216858522977127,0.0929761145721509
11.972516,8.252386375591302,0.0925822628776129
11.974908,8.280976760406448,0.0922427064018251
11.977303999999998,8.307704814102038,0.0919151315948406
11.979691999999998,8.341230565969797,0.091544637056794
11.982072,8.378480980076667,0.0911596916732384
11.984467999999998,8.41959582604951,0.0907502767176431
11.986856,8.462433233515053,0.090337885284372
11.989236,8.49647084206201,0.0899877825287708
11.991632,8.532231012101663,0.0896358352157268
11.99402,8.5635676717679,0.089329423958249
11.996415999999998,8.59290223068772,0.0890400541106005
11.998812,8.616882113674349,0.0888022801369264
12.0012,8.63764919110106,0.0885938735178413
12.00358,8.658556038154632,0.0883811609420427
12.005984,8.674247978901876,0.0882137262910361
12.008368,8.691662481141812,0.0880445080519761
12.010748,8.704933012262055,0.0879102020533829
12.013156,8.712616550023625,0.0878022143615962
12.01554,8.721371022971839,0.0876842747628163
12.017919999999998,8.728822243307935,0.0875540701263539
12.02032,8.727333895098583,0.0874851313814717
12.022708,8.726264855769815,0.0873996851225234
12.025087999999998,8.727058147560603,0.0873058263395022
12.027484,8.72184513711214,0.087254039520675
12.029872,8.711184902931866,0.0872220215042403
12.032251999999998,8.698802107258897,0.0871927713039623
12.034656,8.689632117145845,0.0871350128670296
12.037044,8.682603997406066,0.0870583187789309
12.039424,8.678648913599345,0.0869593426294515
12.04182,8.682050606472233,0.0868011347466582
12.044208,8.687314630464677,0.0866355753936879
12.046587999999998,8.696862395203677,0.0864335384544118
12.048992,8.712556231808788,0.0861872684960386
12.051376,8.725177032480842,0.0859631356202299
12.053755999999998,8.74101063871281,0.0857113847581126
12.056156,8.753119582705665,0.0854763854828243
12.05854,8.770303663377996,0.0852078491979869
12.060923999999998,8.794285442222495,0.0849023180313486
12.06332,8.817475825134073,0.0845955778693733
12.065708,8.843319935098128,0.0842852241044084
12.068088,8.875170347301433,0.0839375029081596
12.070492,8.911536817676769,0.0835774549739458
12.072876,8.942967920999493,0.0832463451129891
12.075259999999998,8.974818333202798,0.0828995373740574
12.077656,9.006249436525522,0.0825679188053685
12.080044,9.037680539848244,0.082237235154739
12.082424,9.060963470558445,0.081962347493561
12.08482,9.087179667574834,0.081672701619883
12.087208,9.105806770486137,0.0814186350601578
12.089588,9.118707110411911,0.0811924793892603
12.091983999999998,9.127743018471714,0.0809857309732884
12.094376,9.137710092091291,0.0807772837259748
12.096756,9.146885769777954,0.0805690577596069
12.09916,9.159274253024536,0.0803357976086042
12.101548,9.168869239591777,0.0801126650152555
12.103927999999998,9.17739329097238,0.0798973443403128
12.106328,9.177257313061258,0.0797219486369198
12.108716,9.17525900403058,0.0795539303378525
12.111095999999998,9.177404666119596,0.0793586792550724
12.1135,9.17354402596936,0.0791975041403809
12.115888,9.163956622833592,0.0790602175771711
12.118268,9.149992931152656,0.0789286810337033
12.120664,9.141244145778051,0.0787615715990049
12.123052,9.135149087455924,0.078590181678596
12.125431999999998,9.130264733947293,0.0784057149754055
12.127832,9.124588984505746,0.0782192213240108
12.130216,9.123057206183892,0.0780049443593904
12.132599999999998,9.12059426230226,0.0777944720220425
12.134996,9.12106458472682,0.0775695192663676
12.137384,9.124188634203858,0.0773404629512346
12.139767999999998,9.130245949987092,0.0770974481979929
12.142172,9.129505567598155,0.0768850496865627
12.14456,9.125831918903025,0.0766867269683706
12.14694,9.123229205394528,0.0764813059550127
12.149344,9.126493024498425,0.0762497417357965
12.151732,9.134831980281794,0.0759901824960855
12.154112,9.147035367931135,0.075713012987065
12.156515999999998,9.1583075900207,0.0754395781636422
12.158903999999998,9.164225136177071,0.0752049014441806
12.161284,9.175357588639775,0.074937220248502
12.163688,9.191425408155094,0.0746466215801568
12.166076,9.211497429163243,0.0743367190055851
12.168456,9.229707119051838,0.0740339945866435
12.17086,9.246473786701458,0.0737237200206326
12.173248,9.262728597671876,0.0734022007411279
12.175631999999998,9.280054343828937,0.0730739556821936
12.178028,9.301663830732547,0.0727195254473151
12.180412,9.321550756143465,0.0723663190307493
12.182795999999998,9.344510717487433,0.0719990373299487
12.185192,9.367610448458269,0.0716287472217295
12.18758,9.39126925793654,0.0712419530249425
12.18996,9.421074139280922,0.0708230452844831
12.192364,9.450879020625305,0.0704044284042602
12.194752,9.477610866036631,0.0700035140119278
12.197131999999998,9.49782455252951,0.0696196970605034
12.199528,9.515244742343056,0.0692446950728115
12.201916,9.535877737716516,0.0688510542493012
12.204299999999998,9.55571933715706,0.0684555204772834
12.206696,9.577982346224598,0.0680372543222677
12.209084,9.597451858612803,0.0676267505516907
12.211464,9.611054838388618,0.0672372310979835
12.213868,9.620374077417878,0.0668744859207845
12.216256,9.630624482006915,0.0665110138810767
12.218635999999998,9.639664181782456,0.0661589569488333
12.221032,9.650146903796973,0.0658175906110053
12.22342,9.656485654691794,0.0654962200724595
12.225803999999998,9.656678333720505,0.065204825686888
12.228196,9.657802178308994,0.0649117754019389
12.230584,9.655713217337569,0.0646384928107884
12.232968,9.651901694873446,0.0643642017261639
12.235364,9.642595726849269,0.0641244416757902
12.237752,9.632079054011596,0.0638958103927938
12.240132,9.623284942666618,0.0636684731948658
12.242532,9.61556176650828,0.0634348787596847
12.24492,9.613285814081747,0.0631967170204138
12.2473,9.608867991281942,0.0629701516525665
12.2497,9.604170629228411,0.062753414371874
12.252083999999998,9.598914188667448,0.0625540939289389
12.254468,9.5944491440394,0.0623580335385315
12.256863999999998,9.590495956090546,0.0621737509990711
12.259251999999998,9.593340466313864,0.0619710667892709
12.261632,9.5981870772836,0.0617609980397213
12.264027999999998,9.600612278626334,0.0615714933167156
12.266416,9.604760041461766,0.0613840020628292
12.2688,9.6071852428045,0.0611948816963211
12.271195999999998,9.619201638998735,0.0609849130284192
12.273584,9.633080366312536,0.0607723559254136
12.275964,9.646400015118893,0.0605777759743965
12.27836,9.654644527245772,0.0604016993276783
12.280748,9.662329960865216,0.0602432119138232
12.283128,9.674950761537271,0.0600693835666354
12.285528,9.686500627022689,0.0599017759555808
12.287916,9.696188161388545,0.0597368319759812
12.290296,9.705735926127543,0.0595766421924857
12.292699999999998,9.712210654933488,0.0594293924926252
12.295087999999998,9.720268175605268,0.0592884966096157
12.297468,9.723110789970717,0.0591707653651488
12.299864,9.730237145082716,0.059031452228036
12.302252,9.73494209056772,0.0589119606802456
12.304636,9.740717971239365,0.0587872556068645
12.307032,9.744212211910869,0.058678415979598
12.30942,9.75091925814229,0.0585541018206781
12.3118,9.762561671426324,0.0584166579097809
12.3142,9.776206185456774,0.058273906047199
12.316588,9.794506527286114,0.0581273920783239
12.318968,9.807080106129924,0.0579919709102873
12.321364,9.820584850533518,0.0578560915376435
12.323752,9.83315842937733,0.0577209606928137
12.326132,9.854671576766586,0.0575609249922849
12.328528,9.881399630462177,0.0573806179573945
12.330916,9.910129784904182,0.057195873481937
12.333296,9.939651335279104,0.0570151336662696
12.3357,9.971035216773586,0.0568333649150434
12.338088,10.001348163081428,0.056656867418421
12.340472,10.027796677523297,0.0564871832569262
12.342868,10.05866870233858,0.0562948401088728
12.345256,10.094755633460192,0.0560819790804329
12.347636,10.127629759021891,0.0558854537298298
12.350036,10.16013179753126,0.055672652855987
12.352424,10.19156290085398,0.0554654720287707
12.3548,10.223273543430428,0.0552510288516585
12.357204,10.250560675633457,0.05506131876419
12.359592,10.27039848335826,0.0548775252818696
12.361972,10.285300924030452,0.0547058579783772
12.364375999999998,10.293405666530472,0.054547364890166
12.36676,10.300439473843856,0.0543936281336145
12.36914,10.30747328115724,0.0542403796850573
12.371532,10.316788728470764,0.0540737771733732
12.37392,10.321448347985395,0.0539108332671532
12.3763,10.320101665260776,0.0537638740989248
12.378696,10.314890550670182,0.0536233969904743
12.381084,10.313032011266364,0.0534659081173663
12.383463999999998,10.313315342235825,0.0533000993456275
12.38586,10.317882413951835,0.0531169402111827
