Time,Force,Position
11.66274,5.143061016822891,0.1580191139710444
11.70814,5.351581434761419,0.1579879847748528
11.71052,5.370527715323211,0.157849005383607
11.712924,5.388869591407188,0.1576500124343543
11.715312,5.4063275237596295,0.1574184909224191
11.717692,5.427370348724325,0.1571271891921401
11.720095999999998,5.453860397420829,0.1567398079020683
11.72248,5.481141842050251,0.1563415462962
11.72486,5.51014584817237,0.1559196854994341
11.72726,5.542734746906742,0.15544154512712
11.729644,5.577790381238485,0.1549947098765875
11.732024,5.617454621540877,0.1545166222298166
11.73442,5.6584221144553855,0.1540331492064224
11.736808,5.696363793265081,0.1535628826673355
11.739192,5.730488262037046,0.1531182057238198
11.741588,5.757163406330784,0.1528221845134167
11.743976,5.781324593198907,0.1525639939664299
11.746356,5.803111592268275,0.1523290022980177
11.74876,5.81963835906094,0.1521265618721507
11.751148,5.834769325442869,0.1518788309238797
11.753528,5.848177730332104,0.1516635407642413
11.755932,5.868942911900947,0.1512796462109247
11.75832,5.885144813469516,0.1510212696897604
11.7607,5.90427998134428,0.1507040429424155
11.763096,5.921413048472629,0.1504301004131508
11.765484,5.934681683735002,0.1502327707125831
11.767864,5.945668678997238,0.1500985415956171
11.770267999999998,5.962382437245006,0.1498627274839741
11.772656,5.975371533253659,0.1496897529345173
11.775036,5.982681088105026,0.1495730984880053
11.777432,5.986872281052964,0.1494360499917411
11.77982,5.984033458403254,0.149395141267836
11.782204,5.984035354261122,0.1492596826021306
11.7846,5.988320990865545,0.1490256072893816
11.786988,5.994748497843245,0.1487411448557398
11.789368,6.002806018515025,0.1483944183558647
11.791764,6.013237726985559,0.1480309944085496
11.794152,6.027766184747543,0.1476281489842591
11.796536,6.046251622174119,0.147191300887836
11.798932,6.064457520346974,0.1467734738826411
11.80132,6.0772161947880186,0.1464413683002338
11.8037,6.084620193295873,0.1462357076194123
11.8061,6.093095126990364,0.1460046789479129
11.808488,6.098636794378661,0.145827733919006
11.810868,6.103946144341478,0.1456205741106496
11.813264,6.10902317687882,0.1453828647013615
11.815652,6.114519518296743,0.1451193189477518
11.818032,6.115360031915772,0.1449326247422951
11.820432,6.11876172478866,0.1446714567370441
11.822816,6.119881777661411,0.1444645258218671
11.825195999999998,6.114296680160611,0.1444198132775521
11.827596,6.115229741578259,0.1442686806501983
11.82998,6.115603724488466,0.1441543616635218
11.86822,6.036566158284618,0.1440970013904203
11.870615999999998,6.038335941605558,0.1440291161775892
11.873003999999998,6.048253897539025,0.1437991336137993
11.875384,6.056589061606657,0.1435830378817887
11.877788,6.0650639953011485,0.1433593381805513
11.880176,6.075680799368916,0.1430910714002036
11.882559999999998,6.081781545264653,0.1428850118470649
11.884956,6.088953226347028,0.1426553024235616
11.887344,6.098918404108739,0.1423851375541726
11.889724,6.111677078549784,0.1420739140080852
11.892119999999998,6.122573421871273,0.1417916284541449
11.894507999999998,6.13412139149882,0.1415148217817841
11.896892,6.14981333224606,0.1411569579914978
11.899288,6.167647143366578,0.1407534049831879
11.901675999999998,6.191627026353206,0.1402370305828478
11.90406,6.21867994527289,0.1396713268327745
11.906456,6.24717588643155,0.1391028810181583
11.908843999999998,6.271388086843655,0.1386227245238629
11.911224,6.296950761696119,0.1381042577922253
11.913628,6.326797177295137,0.1374975923479924
11.916016,6.353338239535623,0.136923621402602
11.918399999999998,6.375735330656416,0.1364330224636893
11.920796,6.394128220284374,0.1360146947390885
11.923184,6.41317273621839,0.1356037658994149
11.925564,6.433288187339045,0.1351757210454402
11.927964,6.451541307340143,0.1347763736836345
11.930348,6.472308384766856,0.1343532881607039
11.932732,6.494937793313125,0.1339069513357319
11.935128,6.512352295553062,0.1335570913142268
11.937512000000002,6.528835632233221,0.1332228294612944
11.939892,6.545970595219437,0.1328922500264895
11.942284,6.5580304215261815,0.1326471104328252
11.944672,6.568739773392567,0.1324409474935373
11.947052,6.579588894885814,0.1322278071818006
11.954216,6.574749867347557,0.1320903925631616
11.956628000000002,6.572562671003906,0.1320499368020131
11.959016000000002,6.569444309100477,0.1320216493333637
11.9614,6.567396882383686,0.1319731435948331
11.963804,6.56772364346565,0.1319130133046681
11.966188,6.570843901226948,0.1318175755580496
11.968572000000002,6.574755554921164,0.1317180264743526
11.970968,6.578015582309323,0.1316150777253914
11.973352000000002,6.580344444137702,0.1315245544248569
11.975732,6.5793207307793065,0.1315002929328763
11.978136,6.57936795260755,0.1314564935656444
11.980524,6.578763548129735,0.1314086620922055
11.982904,6.582722423652196,0.1312675820903019
11.985308,6.585889903241737,0.1311305820758292
11.987696,6.591059483577695,0.1309636022966745
11.990076000000002,6.602886992458962,0.1307085005915452
11.992472,6.61513381022081,0.130431274264559
11.99486,6.627520397609517,0.1301480537094179
11.99724,6.643072568729897,0.1298519245797113
11.999644,6.664071963582087,0.1294926304408971
12.002032,6.688004624740473,0.1290920441922105
12.004412000000002,6.714079156272136,0.1286580832708553
12.006808,6.741084853363576,0.1282147859539222
12.009192000000002,6.763667040081603,0.1278568018789543
12.011572,6.782524564560516,0.1275430040296396
12.013968000000002,6.800311153852791,0.1272502854978436
12.016356000000002,6.823312649451397,0.1268772648823189
12.018748000000002,6.8429615698632285,0.1265662058672454
12.021152,6.864193282140895,0.1262524093956665
12.02354,6.889429195911396,0.1258783444047147
12.02592,6.915596275241675,0.1254970362416139
12.028316,6.944836390505009,0.1250761903816905
12.030704,6.974867901701263,0.1246594322049279
12.033080000000002,7.006482204763351,0.1242398433375552
12.035484,7.037305111892522,0.1238272508738092
12.037872,7.068547327902274,0.1233999535759709
12.040252,7.100441170218083,0.1229810611811093
12.042648,7.129913602906896,0.1226104997835267
12.045036,7.159386035595707,0.1222434565554272
12.047416000000002,7.191279877911517,0.1218330984212344
12.049812,7.224524194667684,0.1213980850964715
12.0522,7.251901978811463,0.1210341211305584
12.05458,7.280071158888159,0.1206706643632623
12.056984,7.309730583032075,0.1202690361851359
12.059372,7.341392107922406,0.1198402669278841
12.061752000000002,7.373984798372517,0.1194050754772285
12.064152,7.397637920277183,0.119082504897081
12.066536,7.424643617368623,0.1187035744486275
12.068916000000002,7.447133256288033,0.118364793116516
12.07132,7.47083360002094,0.118005720118412
12.073708,7.491600677447654,0.1176818009581435
12.076088000000002,7.5031486470752,0.1174807333611398
12.078492,7.511763350396551,0.1173149882613244
12.08088,7.517724326665428,0.1171695093407936
12.08326,7.51968110144147,0.11707315108222
12.085664,7.519635775471095,0.1170019448712795
12.088052,7.517867888008025,0.1169415792182014
12.090432,7.517869783865894,0.1168315560098716
12.092828,7.51442655673837,0.1167427986699695
12.095216,7.508841459237569,0.1166849394882339
12.097596,7.50218542655013,0.1166420471156092
12.099988,7.5067506024082755,0.1164614862571533
12.102376,7.510012525654303,0.1162717239519153
12.10476,7.511923974459971,0.1161097631336851
12.107156,7.517979394385335,0.1158969807449358
12.10954,7.519518756138666,0.1157177735992269
12.11192,7.525341858638552,0.1154787955445898
12.114324,7.527300529272463,0.1152785806577989
12.116712,7.529119430279516,0.1150839916430683
12.119092000000002,7.529076000167011,0.1149063973205001
12.121488,7.531453979681505,0.1146863204418738
12.123872000000002,7.537975930315691,0.114411474562016
12.126268,7.542775319457181,0.1141459400430933
12.128664,7.547434938971811,0.1138864275891582
12.131048,7.555027824792636,0.1135941751397357
12.133432,7.557545573933989,0.113362836152398
12.135828,7.559271927142424,0.113132992783885
12.138212,7.562581072216695,0.1129010157934701
12.140596000000002,7.567752548410523,0.1126521425158145
12.142992,7.568268196805459,0.1124438936193778
12.14538,7.566130118147921,0.1122541085463873
12.147776,7.5498375646386044,0.1122322856756564
12.150172,7.533125702248707,0.1122298061731916
12.15494,7.499749199297155,0.1121838476896963
12.157336,7.484946889855058,0.1121245988353255
12.159724,7.471075745972739,0.1120567101413288
12.162104,7.467215105822503,0.1118780880123365
12.164508,7.467638206418823,0.111642646844568
12.166896,7.471134342948197,0.1113727076369274
12.169276,7.473419774664073,0.1111240416582672
12.171672,7.479988947126503,0.1108210781168911
12.17406,7.48734951552185,0.1105161988904488
12.17644,7.5002045294772515,0.1101382180766514
12.178844000000002,7.514410017873011,0.1097352163032995
12.181232,7.53597228294838,0.1092431577205896
12.183612,7.559536648770166,0.1087316112568928
12.186008,7.580167748285757,0.1082496628276597
12.188396,7.601730013361126,0.1077624039795632
12.19078,7.633302782168579,0.1071765465443597
12.193184000000002,7.662593910975896,0.1066210862243571
12.195568000000002,7.697751572395603,0.1060039035101938
12.197948,7.732117837882392,0.1053876278136693
12.200344,7.765413168182541,0.1047907998212657
12.202732,7.800431059975388,0.1041823654971702
12.205112,7.830745902141099,0.1036491465778426
12.207508,7.859710269866451,0.1031440944268685
12.209896,7.880386695352417,0.1027389769454875
12.212276,7.900923351211523,0.1023444564319122
12.214672,7.918526740764432,0.1019795497700842
12.21706,7.936130130317341,0.1016154623532009
12.219444,7.951451879870114,0.1012864669772523
12.22184,7.968775730169304,0.1009390123458747
12.224228,7.980884674162161,0.1006507282817113
12.226624,7.991643143714659,0.100388106461332
12.229020000000002,7.995044836587547,0.1002056711061175
12.231404,7.998586299087295,0.1000180664905026
12.233788,8.002547070467624,0.0998120870479254
12.236184000000002,8.005436906661314,0.099618703340844
12.238572,8.001901131735174,0.0994987072049705
12.240956,8.002369558301867,0.099342654377742
12.243352000000002,8.003769150428338,0.099180919450581
12.24574,8.00409780736817,0.0990306519391803
12.248124,8.001213658748087,0.0989161059731302
12.250520000000002,8.00168208531478,0.0987600522037171
12.252908,8.007644957441526,0.0985392522088296
12.255288,8.015889469568409,0.0982898515180069
12.257692000000002,8.022411420202596,0.0980448662351475
12.260080000000002,8.026931270090365,0.0978185030847767
12.26246,8.025165278485165,0.0976554979250803
12.264856000000002,8.02526161799952,0.0974813356856679
12.267244000000002,8.023216087140598,0.0973307135162837
12.269624,8.020239390721898,0.0971860198168051
12.27202,8.015120823929923,0.0970642269898145
12.274408,8.013075293071003,0.096913715280232
12.276788,8.016104898891552,0.0967162059433605
12.279188,8.016713095085105,0.096554156929973
12.281576,8.018904083144495,0.0963929146744941
12.283956,8.023516480830882,0.0961975110677257
12.286352,8.02840841777099,0.0959904080299676
12.28874,8.033300354711095,0.0957841370692168
12.291136000000002,8.039542766091563,0.0955560240741611
12.293532,8.049649609338003,0.095300688989858
12.29592,8.063248797398078,0.0950001575479454
12.2983,8.073635179898238,0.0947343181415887
12.3007,8.080529217584761,0.0945149679213412
12.303084000000002,8.08462975859195,0.094312014989258
12.305468,8.092874270718834,0.0940707753284639
12.307864000000002,8.099908078032218,0.0938461705639731
12.310248,8.115369597211851,0.0935382314441514
12.312632,8.128829015645065,0.0932478138817422
12.315032000000002,8.145501239638198,0.0929254964834602
12.317420000000002,8.162033694004469,0.0926094775921818
12.319804,8.181499414676935,0.092271003346006
12.322196000000002,8.196960933856568,0.0919662389584022
12.32458,8.2124224530362,0.0916630032651574
12.326976000000002,8.230025842589109,0.0913385500248575
12.329372,8.247349692888298,0.0910268666169672
12.331756000000002,8.263974695053188,0.0907463277938693
12.334136,8.27766643091188,0.0904854623064873
12.336536,8.29228933233035,0.0902214294531596
12.338920000000002,8.303699428188906,0.089989874327441
12.3413,8.314178358487684,0.089764493983053
12.343692,8.323027275092382,0.0895727205091946
12.34608,8.333878292443496,0.0893662833668558
12.34846,8.345148618675191,0.0891433622956635
12.350872,8.357861967145865,0.0889283197467293
12.35326,8.373229042669012,0.0887076249242519
12.35564,8.390877758192293,0.0884616913325744
12.358044,8.408898560767915,0.0882360943760149
12.360428,8.428130068157035,0.0879960988029373
12.362808,8.444148769986239,0.0877864369962511
12.365208,8.461238407002078,0.087567716234009
12.367596,8.478607583271643,0.0873386692795707
12.369976,8.4989100258474,0.0870921574284484
12.372372000000002,8.520283403609795,0.0868379736830228
12.374756,8.539654680625778,0.0865981093148646
12.377148000000002,8.559305496895476,0.0863484911799359
12.379544,8.579515391672619,0.0860795406302542
12.381932,8.602518783129094,0.0857974270258532
12.384312,8.621797512346456,0.0855324180269812
12.386704000000002,8.641867637496738,0.0852684801670869
12.389092000000002,8.658864726713963,0.0850274942727525
12.391484000000002,8.678143455931329,0.084763464127167
12.393888,8.697422185148689,0.0845008320569958
12.396276,8.71628160548547,0.084254683915678
12.398656,8.733558233956417,0.084006127226196
12.40106,8.744828560188113,0.0837982050414193
12.403444,8.752746311233032,0.0836232216588225
12.405824,8.758010335225478,0.0834554734763713
12.408228,8.75913038809823,0.0833188592843608
12.410616,8.762392311344257,0.0831640071273768
12.412992,8.765794004217145,0.0830044689824318
12.415388,8.77077848895587,0.0828484469330871
12.417772,8.772969477015259,0.0827040409091924
12.420152000000002,8.771016493954955,0.082590305725179
12.422556,8.769203280521511,0.0824711247314057
12.424944,8.767390067088066,0.0823522147355315
12.427320000000002,8.755426580295678,0.0823012018753813
12.429716,8.744394259063066,0.082246377877045
12.432100000000002,8.735084499323154,0.082189240677922
12.434496,8.728196149210236,0.0821037409536386
12.4369,8.726662475030512,0.0819740490912656
12.439284,8.71819133305176,0.0818849581645565
12.441664,8.710791126259645,0.0817871054064946
12.444068,8.703670458721252,0.0816787926021369
12.446456,8.697620726369498,0.0815615483937483
12.448832,8.693573094764158,0.0814318167663825
12.451228,8.688873836852762,0.08129455892168
12.453612,8.684174578941365,0.0811572761088514
12.455996,8.683479522522802,0.0809950545707255
12.458396,8.679851199798044,0.0808485771674827
12.460784,8.676222877073288,0.0807023943123641
12.463164,8.673013863229109,0.0805412194752745
12.46556,8.670736014944712,0.0803765065741735
12.467944,8.673673072966645,0.0801744307568025
12.470324000000002,8.68047456285455,0.0799545627361311
12.472728,8.68648465680954,0.0797334825467688
12.475112,8.70543852080281,0.0794377680555888
12.477492000000002,8.725603089609578,0.0791302893267946
12.479892,8.74804929841648,0.0788026194655976
12.482276,8.768493406476969,0.0784885195512807
12.484668,8.784514004164043,0.0782139481148841
12.487064,8.810265566329479,0.0778933995350308
12.489448,8.833083862188722,0.0775885732668726
12.491832000000002,8.85897519398102,0.0772668349999761
12.494236,8.885797691333094,0.0769436962299606
12.496624,8.913830893498668,0.076608806623406
12.499004,8.94973272902305,0.0762374083120634
12.501408,8.985634564547432,0.0758670358063703
12.503792,9.021024543392617,0.0754869159363109
12.506172,9.06363152929055,0.0750656127256042
12.508568,9.106238515188483,0.0746472121707632
12.510956,9.14684340034,0.0742423429752355
12.513336,9.187588055118376,0.073833979403965
12.51574,9.224328508403916,0.0734487317128704
12.518128,9.257204529823486,0.0730810435339832
12.520508,9.287007515310002,0.0727304015364969
12.522912000000002,9.312154672997623,0.072396266986392
12.5253,9.333577168446132,0.0720731944823631
12.52768,9.351926627961586,0.071768413848676
12.530076,9.368273986730625,0.0714732936623941
12.53246,9.38597181994002,0.0711614053794389
12.534844,9.397151494230968,0.0708680566544886
12.537236,9.410333269268332,0.0705657556743329
12.539624,9.418579677253083,0.0702855286962311
12.542004000000002,9.429619581917173,0.0700005303994721
12.5444,9.439728321021482,0.0697186543751187
12.546788,9.44411029714026,0.0694563203423013
12.549184,9.450354604378596,0.0691904886532468
12.55158,9.456970998669268,0.0689418248644177
12.553964,9.45744132109383,0.0687254944113916
12.556344,9.454838607585335,0.068524407108941
12.558748,9.453167059636622,0.068321614644519
12.561136,9.451355742061049,0.0681235235925473
12.563516,9.449544424485472,0.0679251332942498
12.565912,9.448524502842815,0.0677292585766423
12.5683,9.45243994825277,0.0675144021634062
12.57068,9.45300281847595,0.067323309497054
12.573076,9.455288250191826,0.0671327741125653
12.575464,9.45850484746748,0.0669403045766674
12.577856,9.463583775862691,0.0667438435124184
12.580248,9.469454100190818,0.066550595574768
12.582636,9.479840482690978,0.0663532529643881
12.585012,9.4891559300045,0.0661629065829452
12.587416,9.50019393881072,0.0659733536814486
12.5898,9.505225645377688,0.0658088369109449
12.59218,9.508906877504296,0.065659772715254
12.594576,9.5143106711236,0.0655119869361883
12.59696,9.517852133623348,0.0653681323255633
12.599340000000002,9.521533365749958,0.0652201488354495
12.601736,9.52293295787643,0.0650886654183038
12.604120000000002,9.525263715562682,0.0649551356729254
12.606504,9.525312833248794,0.0648387590327025
12.608916,9.526153346867822,0.0647254285201658
12.6113,9.529787357166189,0.0646073423635152
12.613696,9.535423468210968,0.0644818133604017
12.6161,9.53598444257628,0.0643779713108589
12.618484000000002,9.540549618434422,0.0642584242568897
12.620864,9.549258765412262,0.064119831956694
12.623268,9.557688373136378,0.0639903740755158
12.625652000000002,9.565978211233634,0.0638655938025449
12.628032,9.573476653397972,0.0637382660015162
12.630436,9.57617949813656,0.0636232467450634
12.632824,9.581815609181344,0.0634998341464191
12.635204000000002,9.588522655412763,0.0633707685650745
12.637608,9.596440406457685,0.0632310097439605
12.639992,9.604637696756324,0.0630821278931745
12.642372000000002,9.611903821495186,0.0629350754424588
12.644768,9.61823878067427,0.062789508970978
12.647156,9.624433970226494,0.0626488408252372
12.649536,9.637054770898548,0.0624734118271271
12.65194,9.651677672317016,0.0622910500900648
12.654324,9.669373609668543,0.0620961207480961
12.656704,9.68828025183357,0.0618920936356358
12.659096000000002,9.705184793252178,0.0616958938476927
12.661484000000002,9.722368873924506,0.0614924011472161
12.663864,9.747561357582503,0.0612622051486083
12.666264000000002,9.773545237173416,0.0610362980542388
12.668652000000002,9.79203257045786,0.0608500499545939
12.671032,9.812010147809524,0.0606459041758725
12.673436,9.835991926654025,0.0604297418440028
12.675820000000002,9.860765101431438,0.0602176238008776
12.678204,9.889542477701688,0.0599928866573621
12.680600000000002,9.912453321359548,0.0597841165657982
12.682984,9.932710437964932,0.0595747971386875
12.685368,9.958042691249789,0.0593487875922915
12.687764,9.98737914602748,0.0591114033247849
12.690148,10.01699514005889,0.0588664739392305
12.692532,10.049823939650215,0.058607234581561
12.694928,10.079207616256149,0.0583435985057991
12.697312,10.104447321742388,0.0580980817349465
12.699692,10.130897732042126,0.0578448360063535
12.702092,10.15469441528939,0.0575910672083936
12.70448,10.17504597555126,0.0573334531314421
12.70686,10.195025448760797,0.0570604332212291
12.709276,10.210209324544577,0.0567962162354465
12.711660000000002,10.219666437342829,0.0565425043536659
12.714044,10.224887031222767,0.0562802559373143
12.716440000000002,10.23574184028962,0.0559851921474762
12.718824,10.243663383050276,0.0556967450179258
12.721204,10.245997932452266,0.055413415538993
12.7236,10.248472251481113,0.0551267356815598
12.725988,10.245219807524434,0.0548477872219725
12.728372,10.247042500247224,0.0545532155609552
12.730764,10.251798459276207,0.0542527757336627
12.733152,10.247754619386608,0.0539700192182527
12.735532,10.240125886884751,0.0536860526541225
