Time,Force,Position
15.184524,2.8166777518425743,0.1603683185254467
15.186919999999995,2.992350586229572,0.159396106942507
15.189307999999995,3.148750378972814,0.159146931584154
15.191699999999996,3.304827202349831,0.1582567255686131
15.194095999999998,3.451176852964223,0.1570718379846029
15.196483999999998,3.5809090848452034,0.1559983760889895
15.198863999999997,3.694628302470588,0.1551556096909677
15.201259999999998,3.794661471810887,0.1545548744157855
15.203647999999998,3.890552565889361,0.1538317213575148
15.206028,3.9789962313474794,0.1530879354226458
15.208436,4.065534135573534,0.1519577957743666
15.210819999999998,4.133545068118379,0.1511137221051519
15.213203999999998,4.185775303833106,0.1505143846936898
15.215599999999998,4.222549707941807,0.150217537031353
15.217987999999998,4.254949719363206,0.1498332977503914
15.2347,4.221622334097767,0.1496916069883018
15.239487999999998,4.2210651514481965,0.1495532944884729
15.241867999999997,4.227536088538402,0.1494746126280478
15.244263999999998,4.240198423465092,0.1493413550783114
15.246651999999996,4.257376816563813,0.1491158758265331
15.249032,4.278140102274788,0.1488159269727882
15.251431999999998,4.302255963172537,0.148409456669151
15.253819999999996,4.334008140003617,0.1477772609362463
15.256215999999998,4.36538822978236,0.1471344464604327
15.258612,4.400492981800215,0.1464108895578965
15.261,4.434526798631432,0.145711598882285
15.263379999999998,4.472704586582344,0.1448887440011768
15.26578,4.506878173040421,0.1441871565564547
15.268168,4.546079674349728,0.1434144729288013
15.270547999999998,4.590728399390844,0.1425457896346711
15.272944,4.626437555886515,0.1418969448864928
15.275332,4.660796237941827,0.1412933778708714
15.277711999999998,4.68686697775775,0.1409125549662292
15.280116,4.711075386454117,0.1405720851650891
15.320723999999998,4.860498073001563,0.140205846518064
15.32312,4.873020638301392,0.1401208455980362
15.325508,4.896904181773665,0.1397657774857278
15.327892,4.922510286738635,0.1393871889230328
15.330288,4.943181024650992,0.1391161854715861
15.332676,4.971580626295298,0.138697169721058
15.335055999999998,4.9962083438722455,0.1383999259220012
15.337452,5.022838162195609,0.1380601285902199
15.33984,5.054915204250783,0.1376414811401178
15.342223999999998,5.09029759966449,0.1371940308375337
15.34462,5.131406758063728,0.1366403346948433
15.347008,5.172655686089825,0.1360712367808527
15.349387999999998,5.21646579336978,0.1354191337954274
15.351795999999997,5.25804148247784,0.1347765239410436
15.452156,4.994021322147081,0.1342648114765708
15.454544,4.986154584646142,0.13425594031659
15.456927999999998,4.981593200503737,0.1342181382710267
15.459324,4.982479040093142,0.1341031551562241
15.461712,4.983597197108024,0.1340240493704972
15.464091999999996,4.994027009720688,0.1338024510304918
15.466492,5.012837312371358,0.1334564873848953
15.468875999999998,5.041191588045288,0.1329987160737938
15.471259999999996,5.0767156489437255,0.1324440548343518
15.473655999999998,5.116104141708136,0.1318205677418988
15.476043999999998,5.156423800032324,0.1311701047346711
15.478427999999996,5.202050912461461,0.1304678593818307
15.480823999999998,5.249400586383294,0.1297453757565157
15.483211999999998,5.295958864372211,0.129023896543638
15.485591999999995,5.343727847174626,0.1282808766771594
15.487987999999998,5.390984973297843,0.1275241390911423
15.490375999999998,5.437171164234422,0.1267901683752198
15.492759999999995,5.482798276663559,0.1260977590909619
15.495155999999998,5.5321500513318105,0.1253583315027008
15.497543999999998,5.5767062285743085,0.1247073079067852
15.499924,5.615675412458138,0.1241414732985469
15.502323999999998,5.646356654102578,0.1237523217073006
15.504711999999998,5.676106730187241,0.1233807496418318
15.507092,5.701992374405932,0.1230770362175314
15.509491999999998,5.72471243489295,0.1227881751647097
15.545319999999997,5.64059783615176,0.1226422482863404
15.547708,5.629053658239952,0.1226193042957346
15.550088,5.61951158107456,0.1225635583689981
15.552487999999997,5.608526481670194,0.1225045315336545
15.554876,5.59567905114627,0.1224701871389049
15.55726,5.585205808421101,0.1224264489556083
15.559655999999997,5.576594896815489,0.1223584155552289
15.562043999999997,5.573850517822266,0.1221979176238924
15.564428,5.579626398493909,0.121919692446382
15.566823999999997,5.59056996364364,0.1216000792467615
15.569215999999996,5.603795168793509,0.1212305789208331
15.571596,5.617392460995714,0.1208904656264807
15.573999999999998,5.635505811369952,0.1204984958729125
15.576383999999996,5.650825665064855,0.1201414376050295
15.578775999999998,5.661629460587728,0.1198368691842717
15.58118,5.674947213536214,0.1195183147837872
15.583568,5.691849859096953,0.1191675658859434
15.585943999999998,5.715689972456721,0.1187160393686672
15.588348,5.740321481749407,0.1182660902134558
15.590736,5.77305394182638,0.1177380280222979
15.593111999999998,5.813095956754714,0.1171363223626117
15.595508,5.849133770190218,0.1165982772311709
15.597896,5.888104849931917,0.1160248124228687
15.600271999999997,5.926237311912455,0.1154993027912364
15.602667999999998,5.966232105012548,0.1149491107190101
15.605055999999998,6.007297833299279,0.1143837105289511
15.607436,6.053159159011764,0.1137656913417968
15.667192,6.151014611297759,0.1133112908206593
15.66958,6.150410206819944,0.1132587794072256
15.67196,6.148362780103154,0.1132013688992715
15.674356,6.14259069114725,0.1131810971895125
15.676744,6.142545365176876,0.1130969081658983
15.679123999999998,6.148506341445753,0.1129325441733424
15.681528,6.1624757207002965,0.1126599754365616
15.683916,6.181380467007453,0.1123254902838977
15.686296,6.204568954061164,0.1119214548523353
15.688699999999995,6.224684405181818,0.1115608093931734
15.691084,6.248664288168447,0.1111593112977391
15.693468,6.271433466341576,0.1107802349301541
15.695863999999997,6.295925206007402,0.1103933398321264
15.698248,6.319485780113449,0.1100192131924855
15.700627999999998,6.340764714219359,0.1096857641164901
15.703024,6.365908080191243,0.1093086703917972
15.705412,6.387187014297154,0.1089765761795974
15.707791999999998,6.406883156537228,0.1086520622399476
15.710196,6.423506262844247,0.1083717493712844
15.712584,6.446694749897956,0.107982290087617
15.714963999999998,6.461223207659942,0.1076904881966862
15.71736,6.470956067996175,0.1074506891118271
15.719748,6.4826910290788256,0.1071875789539791
15.722127999999998,6.499780666094668,0.1068459213311874
15.724524,6.5182207775508685,0.1064759547433951
15.726912,6.532284600461899,0.1061347957898422
15.729291999999996,6.542483991506956,0.1058364409851819
15.731687999999998,6.550960821059316,0.1055500134379431
15.734075999999998,6.559717189865397,0.1052517547539987
15.736472,6.570755198671615,0.1049143057542635
15.738875999999998,6.576066444492303,0.1046336139229894
15.741259999999995,6.5856614310595445,0.1042920237420636
15.74364,6.592742460201171,0.1039605291371404
15.746043999999998,6.598240697476963,0.1036305030227219
15.748427999999995,6.608022675499308,0.1032403351438354
15.750812,6.611798351282404,0.1029178569636723
15.753207999999995,6.616784731878997,0.1025714902273643
15.755592,6.619349702848592,0.1022707041007694
15.757972,6.622845839377968,0.1019618715326627
15.760375999999995,6.6221980047876485,0.1017065112030635
15.762763999999995,6.62634576762308,0.1014041211942657
15.765144,6.637291228630682,0.1010341338461156
15.767543999999996,6.644232488145451,0.1007102151507118
15.769927999999997,6.643165344674551,0.1004769542586291
15.772312,6.638233769337678,0.100281153275624
15.774707999999997,6.63474521623978,0.100091888025398
15.777092,6.632327598328521,0.0998875809591554
15.779476,6.628699275603763,0.0997056385461061
15.781875999999995,6.6187851113860345,0.0996043976886424
15.784263999999997,6.610733278287861,0.0994882125399752
15.786644,6.606685646682524,0.0993280906422302
15.78904,6.59956497914413,0.0992042564382283
15.791424,6.593095937911793,0.0990874418778508
15.793803999999998,6.589280623731933,0.0989563949071694
15.796208,6.585465309552071,0.0988258357887121
15.798596,6.589006772051819,0.0986035465371952
15.800976,6.593479400111347,0.0983743349528025
15.803372,6.600233668171009,0.0981101829923993
15.80576,6.607267475484395,0.0978322539931002
15.808144,6.616163613917337,0.0975399603637738
15.81054,6.6251995219771365,0.0972423172853177
15.812924,6.629300062984327,0.0969942520895201
15.815307999999998,6.63726503585749,0.0967129097314754
15.817711999999997,6.648814901342905,0.0964101720172132
15.820096,6.665300133880933,0.0960618362442173
15.82248,6.68327561048618,0.0956803075008361
15.824872,6.703253187837843,0.095281532744842
15.82726,6.7205770381370336,0.0948938295573059
15.829656,6.7400427588095,0.0944744105703294
15.832059999999998,6.757785917989269,0.0940639485414094
15.834447999999998,6.772735580489704,0.0936751228520958
15.836827999999995,6.788756178176778,0.0932728706194876
15.839223999999998,6.80584771105049,0.092858689966125
15.841611999999998,6.821216682431505,0.0924528198382914
15.843992,6.834583553066103,0.0920688620660334
15.846396,6.846599949260343,0.0917162822622472
15.848783999999998,6.858756115081443,0.0913577949403328
15.851163999999995,6.8686306409024045,0.0910323217956766
15.853559999999998,6.88222982896248,0.0906867500282706
15.855947999999998,6.899972988142251,0.0903014836283714
15.858327999999997,6.915574276948743,0.0899420037976179
15.860723999999998,6.92917346500882,0.0895984696284976
15.863111999999996,6.942121026762836,0.0892499842454663
15.865492,6.9552083581437145,0.088894966325848
15.867895999999998,6.96322055284512,0.0885891591107344
15.870283999999998,6.968951107546388,0.0883150075578622
15.872663999999997,6.974681662247657,0.088043143444537
15.875059999999998,6.984136879188039,0.0877496144213586
15.877447999999998,6.997596297621255,0.0874222574715303
15.879828,7.009845011240971,0.0871136665175248
15.882223999999995,7.021534646353248,0.0868310110168058
15.884611999999995,7.03615754777172,0.0865284241884343
15.886992,7.049569744376692,0.0862450702407034
15.889395999999998,7.064564732847502,0.0859663359495356
15.891783999999998,7.0755555198254765,0.0857197283980761
15.894164,7.081331400497118,0.0855247281718846
15.896567999999998,7.088829842661457,0.0853272696372705
15.898951999999998,7.0972594503855735,0.0851244363660009
15.901332,7.102616022176635,0.0849516038561039
15.903727999999996,7.103688853221144,0.0848254733701658
15.906111999999997,7.1084863465047645,0.084680490407614
15.908492,7.12208363870697,0.0844743403289571
15.910895999999996,7.133911147588237,0.0843119908537327
15.913283999999996,7.145738656469506,0.0841499149021316
15.915664,7.1630133890825824,0.0839668543539854
15.918067999999998,7.181731143934636,0.0837933583244537
15.920451999999996,7.19895865471947,0.0836513058739648
15.922832,7.214975460690804,0.0835271648186759
15.925235999999998,7.233645993714613,0.0833984565986999
15.927619999999996,7.255110023417759,0.0832570416605144
15.930003999999997,7.276713822747763,0.0831085288952666
15.932399999999998,7.295104816517853,0.0829935649773612
15.934783999999995,7.315497911034359,0.0828642998932243
15.937164,7.332957739244669,0.0827548206812286
15.939559999999997,7.359077596746705,0.0825944450663203
15.941948,7.388270490181796,0.0824068390275944
15.944343999999996,7.4131796428703325,0.0822617281456476
15.946739999999998,7.440230665932147,0.0820966346836987
15.949127999999998,7.464208653060907,0.0819566987264608
15.951507999999995,7.485253373883469,0.0818350290752939
15.953912,7.50243366284006,0.0817378233014079
15.9563,7.514538815117178,0.0816824126889929
15.958679999999998,7.526132110715097,0.0816125796266155
15.961084,7.539587737432574,0.0815347788722889
15.963472,7.550389637097577,0.0814644339215206
15.965851999999998,7.560028053777324,0.081372124470703
15.968248,7.568083678591235,0.0812760007223896
15.970636,7.579212339338201,0.0811560362078511
15.973015999999998,7.58261213635322,0.0810815086025732
15.975412,7.583218436688904,0.0810193609751349
15.977799999999998,7.591972909637116,0.0808962539848355
15.980179999999995,7.599004821092631,0.0807748260023602
15.98258,7.60445394068231,0.0806500283592536
15.984968,7.609763290645129,0.0805307705379156
15.987347999999995,7.609345877622418,0.0804416520145629
15.989743999999998,7.613491744599981,0.0803025141822326
15.992131999999998,7.622061121950959,0.080118824141542
15.994511999999997,7.630770268928797,0.0799308335616575
15.996907999999998,7.644973861466688,0.0796901027713583
15.999291999999995,7.66560306512441,0.0793930473812036
16.001687999999998,7.688653678409129,0.0790662767235085
16.004084,7.713334305387928,0.0787096452855452
16.006472,7.740017033113143,0.0783408438290085
16.008851999999997,7.764185803412745,0.0779727106596409
16.011256,7.787563177779427,0.0776035994691785
16.013644,7.814665214385224,0.0772232432334712
16.016023999999998,7.8429779558045185,0.0768285137239843
16.018428,7.869428366104256,0.0764439426772243
16.020816,7.900953913083466,0.0760257857328771
16.023196,7.938625531928787,0.0755696006257033
16.025592,7.964424315922467,0.0751833702699305
16.02798,7.99408753178212,0.0747794851670037
16.030359999999998,8.022679812455136,0.0743851938798455
16.032756,8.055975142755285,0.0739417527934115
16.035144,8.091552113055572,0.073476910175621
16.037523999999998,8.121774407422667,0.0730592486264457
16.03992,8.155209507349678,0.0726230276834524
16.042308,8.185851110597351,0.0721978217505805
16.044687999999997,8.212348742725332,0.071803240867041
16.047083999999998,8.236564734853179,0.0714341214933204
16.049471999999998,8.258499086980885,0.0710876251594982
16.051851999999997,8.274427136869342,0.0707736243373608
16.054247999999998,8.290634726011517,0.0704506670909109
16.056635999999997,8.30884441590011,0.0701183955869667
16.059019999999997,8.325331544296008,0.0697858360406291
16.061415999999998,8.337162844893014,0.0694670644839203
16.063803999999998,8.34899414549002,0.0691490741862504
16.0662,8.358171719034551,0.0688332506478272
16.068596,8.364555795899747,0.0685255672861535
16.07098,8.364142174592773,0.0682462711978554
16.073359999999997,8.369734855525053,0.0679362570843846
16.075764,8.374675910151272,0.0676195921945049
16.078148,8.380687899964128,0.0672955157104097
16.080527999999997,8.380414048284017,0.0670112903511884
16.082932,8.380931592536822,0.0667314292952535
16.08532,8.38051797122985,0.0664528383286359
16.087695999999998,8.372747573243267,0.0662209947196982
16.090092,8.365628801562742,0.065997219710492
16.092475999999998,8.355297224322301,0.065794091799259
16.094867999999998,8.343894711895222,0.0655983115627899
16.097264,8.333563134654783,0.0653950000977977
16.099648,8.326816450026596,0.0651879514226375
16.102027999999997,8.318859060584911,0.0649934722347202
16.104432,8.308480261516229,0.0648236452673375
16.106816,8.301686355059797,0.0646511563188967
16.109195999999997,8.299548276402259,0.0644693640469179
16.1116,8.296199492931219,0.0642996614577981
16.113984,8.297506537259075,0.0641210820384304
16.116363999999997,8.299465207892988,0.0639509750038362
16.118768,8.29993363445968,0.0638025416067134
16.121156,8.300262291399513,0.0636597488330137
16.123535999999998,8.300451178712486,0.06352260039882
16.125932,8.304364728264572,0.0633795223155774
16.12832,8.313073875242411,0.063223018320266
16.130699999999997,8.32085185666047,0.0630691665091041
16.133104,8.33463614031778,0.0628913811883061
16.135492,8.348560193601951,0.0627077327330417
16.137867999999997,8.364765886886257,0.0625068025342188
16.140264,8.390190687969731,0.0622625191658104
16.142652,8.414824093120286,0.0620149600406955
16.145044,8.43931772864398,0.0617730187089224
16.147444,8.463811364167675,0.0615314491905018
16.149828,8.487094294877872,0.0613015317658534
16.152207999999998,8.511448160774707,0.0610649605258958
16.154611999999997,8.53221713405929,0.0608300639583183
16.156996,8.548050740291261,0.0606132801735479
16.159375999999998,8.566817612829425,0.0603879270545772
16.161779999999997,8.579578183128339,0.0601863560738788
16.164168,8.591407587867476,0.059986130580673
16.166548,8.606310028539667,0.0597709740313916
16.168951999999997,8.617208267719025,0.0595711295457699
16.171335999999997,8.62503347096533,0.0593855801376438
16.173716,8.62685237197238,0.0592237260429814
16.176119999999997,8.625877776300097,0.0590660958522875
16.178507999999997,8.62061943988126,0.0589334085751154
16.180888,8.610285966782952,0.0588223380404411
16.183283999999997,8.602885759990835,0.0587023223741988
16.185671999999997,8.593343682825443,0.0585947547240369
16.188052,8.575653433047526,0.0585213125037587
16.190455999999998,8.560756679948941,0.0584441428872629
16.192843999999997,8.547070631663855,0.0583557634734524
16.195224,8.536597388938688,0.0582493319232297
16.197627999999998,8.529336951773432,0.058124995353837
16.200011999999997,8.524497924235176,0.0579792246942395
16.202395999999997,8.522033084495675,0.0578448839904185
16.204791999999998,8.52250151106237,0.0577025474547918
16.207179999999997,8.519245275389947,0.0575642258051641
16.20956,8.519062075650583,0.0574127857075825
16.211955999999997,8.521951911844274,0.0572490037635304
16.214343999999997,8.526052452851465,0.0570749205480731
16.216724,8.533226029791708,0.0568878400394047
16.219127999999998,8.543193103411287,0.0566979400350942
16.221515999999998,8.557443917777421,0.0564853087988745
16.223896,8.57369683288997,0.0562666402020353
16.226291999999997,8.593162553562436,0.0560300724105157
16.228676,8.609695007928707,0.055799814321462
16.231056,8.624365131175422,0.0555717969253055
16.233459999999997,8.635962218489082,0.0553556037380353
16.235847999999997,8.649701176176018,0.0551270724162747
16.238228,8.65971547162384,0.0549022996446018
16.240631999999998,8.668798601511886,0.0546791348580048
16.243015999999997,8.674808695466874,0.0544692567419766
16.245396,8.682029494235364,0.0542506991882064
16.247799999999998,8.688039588190353,0.0540437426023227
16.250183999999997,8.695539926212561,0.0538179386373332
16.252564,8.70210909867499,0.0535932930117816
16.254967999999998,8.712682472630252,0.0533572477541803
16.257355999999998,8.72833098326499,0.0531062763984075
16.259735999999997,8.743979493899726,0.0528571414708575
16.26214,8.759628004534461,0.0526092818405079
16.264523999999998,8.776347450355836,0.0523571800277755
16.266903999999997,8.793206665804068,0.0521013425491971
16.269299999999998,8.804850974945971,0.0518664131704863
16.271687999999997,8.813422248154817,0.0516420927061283
16.274068,8.82399562211008,0.0514132920966534
16.276472,8.841786003118095,0.0511591482118733
16.278859999999998,8.861438715245663,0.050904894088841
16.281239999999997,8.885095628866067,0.0506398375440815
16.283644,8.909683708046249,0.0503748596069817
16.286027999999998,8.936134118345986,0.0501094336173096
16.288407999999997,8.959371723085807,0.0498584577472169
16.290808,8.979396522265715,0.0496216170607752
16.293196,8.990062444019594,0.0494193589371025
16.295575999999997,8.995513459467144,0.0492365228045886
16.29798,8.99467863342172,0.0490782054799005
16.300368,8.991981476256742,0.0489200153668301
16.302747999999998,8.985931743904986,0.048781288043799
16.305144,8.96866080300765,0.0486768725861703
16.307527999999998,8.945383559871063,0.0485869160119891
16.309911999999997,8.91796234561478,0.0485110335157439
16.312316,8.891332527291414,0.048439292660117
16.3147,8.857905010795879,0.0483769361337547
16.317079999999997,8.826619364673624,0.0483043866612279
16.319484,8.797196049670925,0.0482312342525022
16.321872,8.761766432428974,0.0481719988510058
16.324251999999998,8.717117707387859,0.0481406170993862
16.326648,8.668604550480767,0.0481132806779658
16.329036,8.616226961707705,0.0480898757514927
16.331415999999997,8.564640768867559,0.0480704063828079
16.33382,8.511052475280998,0.0480547565754895
16.336204,8.46132861356041,0.0480341297823254
16.338583999999997,8.415748722959513,0.0479990038978356
16.340984,8.375383738664954,0.0479445549934051
16.343372,8.339022955863225,0.047880366424631
