Time,Force,Position
13.298356000000002,2.8859949943725387,0.175305262738033
13.300752,3.04253645260051,0.1728497024173862
13.30314,3.185114219147546,0.1707467835647782
13.30552,3.3083736180804526,0.1692818872154537
13.307916000000002,3.4166437161161585,0.1682783779240291
13.310304000000002,3.507735421053143,0.1678862915382865
13.312688,3.5990160133031,0.1670481780140815
13.315084000000002,3.690952023574853,0.1656213524286067
13.317472000000002,3.7665954803372887,0.1645353954149755
13.319856,3.832789407732952,0.1636691670585813
13.322252,3.88748448318718,0.1631429449313959
13.386764,3.989795500811878,0.1624099465396647
13.389152,4.011257634657153,0.1619560500069352
13.391532000000002,4.028623019210978,0.1615609292634817
13.393928,4.041100258540433,0.1612494484302213
13.396316000000002,4.05017959671274,0.1609491230927961
13.398696,4.059957783019347,0.1605805598646719
13.401096,4.072017609326091,0.1601160718168968
13.403484,4.079468829662187,0.1597123354181961
13.405864,4.085896336639888,0.1592851927202881
13.408260000000002,4.086829398057535,0.1590642462459061
13.410648000000002,4.092278517647213,0.1587367962397975
13.413032,4.099310429102729,0.1583838402674042
13.415428000000002,4.10927560686444,0.1579404345299472
13.417816000000002,4.117238683879733,0.1575613368194854
13.4202,4.126272696081665,0.1571420617322747
13.422596000000002,4.137308809030014,0.1566614615697578
13.424984000000002,4.159426360897085,0.1558316304496981
13.42738,4.180380429778902,0.154971194668101
13.42978,4.196586123063209,0.154184012324959
13.432168,4.209206923735263,0.1534907999922823
13.434548,4.218103062168204,0.1529066655790986
13.436944,4.21791986242884,0.1526058203633761
13.439336,4.224813900115364,0.1520930832234078
13.441716,4.234920743361803,0.1514691913807049
13.444116,4.239253601794471,0.151058982542236
13.446504,4.244330634331812,0.1507102570511378
13.448884,4.251781854667907,0.1503359029139571
13.45128,4.262398658735675,0.1499255706177599
13.453668,4.269942426870387,0.1496118743327006
13.456052,4.282840870938294,0.1491271362981495
13.458448,4.296670480565978,0.1486327847167311
13.460836,4.317437557992691,0.1479654612328438
13.463216,4.337273469859626,0.1473197762244166
13.465612,4.356178216166781,0.1466897046100544
13.468,4.376805523966633,0.1460340268857718
13.470380000000002,4.396501666206708,0.1454045230465882
13.47278,4.41005173658067,0.1449597030274186
13.475168,4.427186699566887,0.1444465104426406
13.477552,4.442831418485885,0.1439948322670614
13.479948,4.457265432591383,0.1435854936927356
13.482336,4.4730026993089975,0.1431896262886949
13.484716000000002,4.490182988265588,0.1427905865679712
13.487112,4.505361176475763,0.1424505673902089
13.4895,4.520399595059075,0.1421251788205755
13.491884,4.543818503680392,0.141615897284799
13.49428,4.567796490809151,0.1410635243251533
13.496668,4.589679829392876,0.1405186841794026
13.499052,4.60690734017771,0.1400704703184133
13.501448,4.623575772455102,0.1396669610529771
13.503836,4.6347497591724425,0.1394352738341523
13.511004,4.645270223725856,0.1393812904000096
13.515788,4.658257423876639,0.1393619999623115
13.518176,4.668405801377715,0.1392880421756791
13.520556,4.680416509998347,0.1391795845761757
13.522956,4.694941176044593,0.1390451407196281
13.525344,4.716123770636148,0.1387783458663687
13.527728,4.743172897840093,0.1383901057620747
13.530124,4.767987606872144,0.1380127761020304
13.532512,4.792942085531056,0.1376270009086569
13.534896,4.820130982361861,0.1372405635877079
13.537292,4.847272657364423,0.136912931200075
13.539684,4.876975511620843,0.1365141927597704
13.54206,4.9037450995710685,0.1361754201302497
13.544452,4.93060723531991,0.1358868148005939
13.546836,4.960634954800426,0.1355718866301919
13.549232,4.995458271706691,0.1351682907744817
13.551624,5.034285790105791,0.1346774053796972
13.554012,5.077257279624585,0.1340914137903495
13.556404,5.115433171717627,0.1335939357865872
13.558796,5.155471394930225,0.1330664802245397
13.56118,5.19178495590371,0.1326042303931728
13.563564,5.2258640987053,0.1321468480002736
13.56596,5.255427183334862,0.1317684101942972
13.568344,5.282057001658224,0.1314484272968378
13.57074,5.302960056996059,0.1312345428136834
13.573136000000002,5.320929846027698,0.1310813602126973
13.575524,5.334104037633585,0.1310170767198378
13.577904,5.346998689985752,0.1309729307702023
13.582684,5.368411706144915,0.1309413105573579
13.587472000000002,5.382609611109199,0.1309099092242577
13.589856,5.392385901557937,0.1308364667665737
13.59224,5.402861040140976,0.1307155034180135
13.594644,5.416176897231591,0.1305015329500341
13.597028000000002,5.427118566523455,0.1303038209838871
13.599408,5.434894652083644,0.1301237283514412
13.601812,5.437223513912025,0.1300156045749516
13.604196000000002,5.443556577233239,0.1298334697846778
13.606576,5.447515452755698,0.1296642377192649
13.60898,5.452685033091658,0.1294617353155749
13.611364000000002,5.460927649360672,0.1292003118003304
13.613744,5.46623699932349,0.1289877573926339
13.61614,5.471965658166891,0.1287456647854365
13.618528,5.47797385626401,0.1284820313606546
13.620908,5.477324125815821,0.128324328163198
13.623312000000002,5.477093704248213,0.1281373921494919
13.625700000000002,5.479284692307603,0.1278841832565656
13.62808,5.481755219620712,0.127613091392305
13.630472,5.485715991001041,0.1272878302894363
13.63286,5.485393021634816,0.1270584148971314
13.63524,5.490145188948063,0.1267303653697344
13.637636,5.486097557342726,0.126556580491606
13.64002,5.479908055364109,0.1264289582999114
13.644808,5.455888533980716,0.1264157837588218
13.647196,5.445275521628686,0.1263878820803854
13.649576,5.439737645956129,0.1262648171687184
13.651972,5.433408374350653,0.1261453329790989
13.65436,5.429732829797652,0.1259960059808054
13.656752,5.4283389252447884,0.1257931862873818
13.659152,5.426293394385866,0.1255855858546157
13.661536000000002,5.433466971326111,0.1252123613721212
13.663916,5.441571713826135,0.1248268162898953
13.66632,5.455403219311687,0.1243609034429026
13.668708000000002,5.484320365208797,0.1236450511533992
13.671088,5.513237511105906,0.1229317645656851
13.673492,5.539081621069961,0.1222768442263894
13.675876000000002,5.562224782153297,0.1216999821369036
13.678256,5.588533526968306,0.1211155175032049
13.68066,5.612840171036899,0.1205575111344174
13.683048,5.636355419172572,0.1200092179521117
13.685428000000002,5.662803933614441,0.1194124808642314
13.687824,5.692697571041703,0.1187893712279491
13.690212,5.723662143655602,0.1181443262954307
13.692592,5.755837421083002,0.1174653122147948
13.694988000000002,5.783589188136987,0.1168800983193768
13.697376000000002,5.81050233742981,0.1163560067784078
13.699756,5.839138048215329,0.1158220789127027
13.70216,5.86805329825457,0.1152785154017792
13.704544000000002,5.896689009040091,0.1147604807889769
13.706924,5.925557037251087,0.1142806418428023
13.709328,5.9457178143421165,0.1139714001597951
13.711712000000002,5.966390448112343,0.113678377289249
13.714092,5.982127714829958,0.1134585141456753
13.7165,5.983710506695794,0.1134546572089533
13.718884,5.986876090427466,0.1134471690804485
13.721264,5.990833070092056,0.1134377839192284
13.72366,5.997630768264225,0.1133492039810198
13.726048000000002,6.002845674570556,0.1132652403384999
13.728428,6.015789444608835,0.1130845091558692
13.730832,6.02524086983348,0.1129753521087076
13.73322,6.037625561364317,0.1128295138813692
13.735600000000002,6.051500496962376,0.1126447175085277
13.738004,6.067097994053131,0.1124499618846523
13.740388,6.086932010062196,0.1122335059836029
13.742772000000002,6.1089078964445385,0.1119796284249861
13.745168,6.127438659841486,0.1117475373894193
13.747552,6.147040358425074,0.1115019860878572
13.749932,6.162218546635248,0.1113347567810688
13.752336,6.175534403725866,0.1111877036441932
13.754724,6.18433420264445,0.1110790720299851
13.757104000000002,6.193553310443617,0.1109446090683347
13.7595,6.205054058242921,0.1107687548431827
13.761888,6.218556906788641,0.110566218802575
13.764272000000002,6.240207927946889,0.1102467797831315
13.766668,6.260927783545357,0.1099391817276147
13.769052000000002,6.282578804703606,0.1096229699117154
13.771432,6.302460042540913,0.1093653684128461
13.773832000000002,6.319547783698887,0.1091356635822434
13.776216000000002,6.333050632244607,0.1089388434994517
13.7786,6.349766286350244,0.1086902192014518
13.780996000000002,6.363548674149684,0.1084791183795979
13.783384000000002,6.370393594150095,0.1083552293702955
13.78578,6.376586887844449,0.1082257069940942
13.788176,6.379614597807131,0.1081014989264678
13.790564,6.387857214076146,0.1079055028621018
13.792944000000002,6.399312635905075,0.1076610834117485
13.795344,6.406763856241171,0.1074670245407138
13.797732,6.419569752510459,0.1071935119174747
13.800112000000002,6.435308915085943,0.1068898216240463
13.802508,6.454772739900539,0.1065513821390269
13.804892,6.477169831021332,0.1061797586200266
13.807276000000002,6.496493886209068,0.1058512112556535
13.809676,6.516609337329722,0.1055243765326211
13.812064,6.533232443636742,0.1052615703948907
13.814444000000002,6.548272758077925,0.1050005446080933
13.81684,6.565454942892385,0.1047114562736673
13.819228,6.583196206214286,0.1043928247221284
13.821608,6.605453527708217,0.1040427473496624
13.824012,6.628502245135067,0.1036953687706477
13.8264,6.651550962561917,0.1033501504388133
13.828780000000002,6.675391075921684,0.1030055368319828
13.831176,6.702676312266846,0.1026420636300819
13.833564,6.726748743052092,0.1023236274465611
13.835948000000002,6.749051390516397,0.1020563243933746
13.838344,6.764137030927954,0.1018823788025366
13.840732,6.780665693578484,0.101717158428786
13.843112,6.798125521788796,0.1015438945631473
13.845512,6.812232774812332,0.1014237906159828
13.8479,6.824337927089449,0.1013274637197573
13.85028,6.837793553806926,0.1012037433833293
13.852676,6.851249180524404,0.1010809766504233
13.855064000000002,6.865775742428519,0.1009443946031896
13.857444,6.877648577280159,0.1008228816683627
13.859844,6.893013756945437,0.1006459424124202
13.862228000000002,6.907819858103273,0.1004963275573964
13.864624,6.918481988141415,0.1003970934774382
13.86702,6.9325892411649495,0.1002849170736957
13.869404,6.946976033442205,0.1001610307941203
13.871788000000002,6.958569329040126,0.1000583256804204
13.874188,6.972164725384463,0.099936702992753
13.876576,6.9848289561690216,0.0998220975563554
13.878956000000002,6.995118999154825,0.0997068671455719
13.88136,7.009413243633464,0.0995509706114543
13.883744,7.027199832925739,0.0993408995179288
13.886124000000002,7.047128292591291,0.099102656657397
13.888532,7.06333209001773,0.0988924623667989
13.890916,7.082608923377224,0.0986503343408313
13.8933,7.103096461550216,0.0983884864689957
13.8957,7.12130235972307,0.0981600812242887
13.898088,7.140299653828844,0.0979352617645839
13.900468,7.160228113494396,0.097705806111829
13.902872000000002,7.179504946853888,0.0974708474100748
13.905256,7.202646212079356,0.0972054493372838
13.907636,7.2227144413717665,0.0969747209772378
13.910040000000002,7.247345950664453,0.096681096204354
13.912428000000002,7.275609574397636,0.096331328470655
13.914808,7.298565744025869,0.0960072777760493
13.917212,7.317657481788129,0.0957159578383958
13.9196,7.339682485856583,0.0954013195753384
13.92198,7.353838856566231,0.0951534905238361
13.924376000000002,7.3673436009698205,0.0948986016279804
13.926764000000002,7.383781611679605,0.0946192614332647
13.929144,7.397705664963775,0.0943461143074254
13.931540000000002,7.40897599119547,0.094085513587917
13.933928000000002,7.419175382240526,0.0938369959872307
13.936308,7.427512442166027,0.0935987806914885
13.938708000000002,7.431053904665775,0.0933972984337133
13.941096000000002,7.433943740859466,0.0931893057054799
13.943476,7.436601259627679,0.0929539601347161
13.945872,7.433392245783501,0.0927668962772627
13.94826,7.429531605633267,0.0925733901111167
13.950644,7.4255311958561725,0.0923863304472535
13.953048,7.414872857533768,0.0922455301288067
13.955432000000002,7.402352188091808,0.092115861551802
13.957816,7.385035921224096,0.0920203367118953
13.960212000000002,7.362225208796332,0.0919909904277769
13.962600000000002,7.340205892301486,0.0919622717749188
13.96498,7.315532848754165,0.0919442538517968
13.967376000000002,7.28727491259459,0.0919412778402458
13.969764,7.267165149047543,0.091860373411261
13.972144,7.2450532847540785,0.091797047163023
13.97454,7.222150024527695,0.0917318183242537
13.976928,7.20096932579401,0.0916609771584665
13.979308,7.18286166299338,0.0915593466067655
13.981708,7.166104474633107,0.0914324903265582
13.984092,7.152560091832752,0.0912693272324022
13.986476,7.137153377912839,0.091116410728849
13.988872,7.11960479361965,0.0909870106772285
13.991256,7.103918540446017,0.0908457363783706
13.993636000000002,7.094518128765356,0.090638577929392
13.996036,7.084046781898056,0.0904432796349605
13.99842,7.072504499844117,0.0902595108278236
14.00082,7.062964318536595,0.0900572076071439
14.003216000000002,7.056497173162128,0.0898252036015095
14.005604000000002,7.053475150773055,0.0895847376283146
14.007984,7.054876638757395,0.0892895085927385
14.01038,7.057488831555234,0.0889757166065334
14.012768,7.065827787338603,0.0886229190042963
14.015152,7.074818369428031,0.0882769372601707
14.017548,7.079804750024624,0.0879670061457313
14.019936,7.08986626730069,0.0876114419015164
14.022316,7.100858950136535,0.087252231312799
14.024712,7.111991402599239,0.086888482060173
14.0271,7.119351970994587,0.0865861677149519
14.02948,7.125501834576435,0.0863018457044265
14.03188,7.135516130024258,0.0859939469993159
14.034264,7.152328123644249,0.085639206464425
14.03666,7.171142218010658,0.0852677820374438
14.039052000000002,7.1927498090564015,0.0848852144558023
14.04144,7.209282263422672,0.0845477843141489
14.04382,7.222881451482748,0.0842298867993681
14.046216,7.238622509916102,0.0838906249390564
14.0486,7.261021496894763,0.0835153967536875
14.050996,7.281278613500148,0.0831630284892375
14.053392000000002,7.298742233426197,0.0828253508970444
14.055776000000002,7.316857479658304,0.082498642776514
14.058156,7.337905992196607,0.0821557148866939
14.060556000000002,7.358814735108048,0.0818223856010125
14.062944000000002,7.379723478019491,0.0814884492007949
14.065324,7.40235478242363,0.0811528982491431
14.067724000000002,7.422704446827631,0.0808465368727571
14.070108,7.441983176044993,0.0805520650053423
14.072488,7.458049099702441,0.0802884890900733
14.074884,7.472811770747772,0.0800068786632176
14.077268,7.4927893480994365,0.0796827594394852
14.079664,7.505829457652072,0.0794067354441126
14.082060000000002,7.513934200152095,0.0791637681772893
14.084444,7.523109877838756,0.0789117262596065
14.086824,7.527350188472806,0.0786919697882956
14.089228000000002,7.531171190226274,0.0784893266302321
14.091616000000002,7.538856623845717,0.0782646845887956
14.093992,7.543329251905244,0.0780699319391947
14.096396000000002,7.540864412165742,0.0779211031310508
14.098784000000002,7.541472608359296,0.0777490747360692
14.101164,7.54100986936621,0.0775862857364523
14.103560000000002,7.535471993693653,0.0774605044618757
14.105948,7.524579442087901,0.0773838511334973
14.108328,7.509682688989318,0.077334128998673
14.110724,7.497858971823789,0.0772607780596584
14.113112,7.4831019883520655,0.0772044631610438
14.115504,7.46913640081326,0.0771503745491287
14.117900000000002,7.455031043647593,0.0771019976426589
14.120288000000002,7.443998722414983,0.0770304082198476
14.122668,7.439344790473961,0.0769392792203689
14.125072,7.429336182599745,0.0768959521991465
14.127456000000002,7.42598550327084,0.0768218023992973
14.129836,7.428501356554324,0.0767150449842158
14.13224,7.431808605770725,0.0766113967374127
14.134628,7.436978186106684,0.0765007292705766
14.137008000000002,7.449225003868531,0.0763435136597484
14.139404,7.461471821630378,0.0761872813929795
14.141792,7.478514236817978,0.0760089875607663
14.144172,7.497698522378855,0.0758120732343853
14.146576,7.514601167939593,0.0756404327859399
14.148964,7.536718719806664,0.0754301978109818
14.151344000000002,7.564051177980069,0.0751804852678309
14.15374,7.592734110593832,0.0749089341929763
14.156128,7.627423345446846,0.0746021831960505
14.158508,7.661693271419279,0.0743158537460891
14.160912,7.700107168511406,0.0740004086881605
14.163296,7.741873640790309,0.0736566777722263
14.165680000000002,7.785502444188768,0.073308682550332
14.168076,7.829922643520146,0.0729662651226193
14.170460000000002,7.871828885425909,0.0726258418487853
14.17284,7.91480606251831,0.0722765788787118
14.175240000000002,7.956200447744875,0.0719274898189371
14.177624000000002,7.993730401105467,0.0715992389918585
14.180008,8.028187318533003,0.0712916360762217
14.182408000000002,8.064646336706955,0.0709748161610923
14.184796000000002,8.094307656708741,0.0706906540043773
14.187188,8.122898041523888,0.0704158426420016
14.189592,8.149905634473198,0.0701379621762289
14.19198,8.18077765928848,0.0698471644566765
14.19436,8.21407109373076,0.0695315698598969
14.196756,8.244011952986266,0.0692474134974279
14.19914,8.274744208174688,0.0689694324853639
14.201520000000002,8.310272060788863,0.0686766832661315
14.203924,8.339933380790649,0.0684105169413462
14.206312,8.367080743366818,0.0681416063750535
14.208692,8.396230206689406,0.0678667266607453
14.211096,8.418302432586103,0.0676294524680764
14.21348,8.438000470684047,0.0673843155097702
14.21586,8.456767343222213,0.0671426077985242
14.218264,8.475534215760378,0.0669024517485614
14.220652,8.497374124231598,0.0666474052572245
14.223032,8.514930291956263,0.0664216626948212
14.225436000000002,8.533417625240705,0.0661947714029228
14.22782,8.554186598525291,0.0659490480685949
14.2302,8.573093240690316,0.0657085293527069
14.232604000000002,8.594141753228618,0.0654539486280461
14.234992000000002,8.616121431326698,0.065198096825978
14.237372,8.635959239051502,0.0649568845150782
14.23978,8.649930514163914,0.0647382316556427
14.242164,8.661759918903051,0.0645345200225424
14.244544,8.674148402149628,0.0643111349523513
14.246956,8.68388315834373,0.0640893758620116
14.249344,8.687891151552302,0.0638839015279267
14.251724,8.695903346253708,0.063661916295059
14.25412,8.70591764170153,0.0634320308192306
14.256508,8.709785865283243,0.0632326797449615
14.258888,8.71672712479801,0.0630179372125925
14.261300000000002,8.725111406551754,0.0628151818320038
14.263684,8.733263370880021,0.0625901321532106
14.266064,8.739413234461871,0.0623735070055554
14.26848,8.739836335058188,0.0621712344648579
14.270872,8.742541075654643,0.0619508595216886
14.273248,8.742172780318043,0.0617446813242532
14.275664,8.739010988302113,0.0615428633085554
14.278052,8.732776160353122,0.0613546914551553
14.280432,8.724119922777135,0.0611888011775513
14.282824000000002,8.713229267029254,0.0610071377726454
14.285212,8.706342812774208,0.0608102721415406
14.287592,8.703740099265715,0.0605882612485388
14.290004,8.698204119451027,0.0603746055685899
14.292392,8.694390701129034,0.0601636846016401
14.294772000000002,8.689646117247264,0.0599539018153889
14.297168,8.68783479967169,0.059735263554941
14.299556,8.680436488737445,0.0595237020976428
14.301940000000002,8.671175846683644,0.0593144896966681
14.304336,8.662334513510421,0.0590896654435198
14.306724,8.65484365477756,0.0588491676302516
14.309104,8.645770004178862,0.0586011538748542
14.311520000000002,8.636137275072723,0.0583725197273513
14.313908,8.627435711526363,0.0581425181271871
14.316288,8.621667414286197,0.0579037344464108
14.318684,8.615759347419171,0.0576698476837806
14.321072,8.616276891671976,0.0574014843107387
14.323452,8.618377227790617,0.0571404899621858
14.325848,8.625832239842453,0.0568504935937974
14.328232,8.639061236708061,0.0565180609602511
14.330612000000002,8.65466442137242,0.0561979787133065
14.333008,8.663749447118335,0.055884355712381
14.3354,8.669761436931195,0.0555839183248382
14.337780000000002,8.68285066416994,0.0552596841121397
14.340176,8.693146394729352,0.054938781102459
14.34256,8.702231420475265,0.0546275623718831
14.34494,8.710245511034541,0.0543226535069689
14.347356,8.722635890138987,0.0540232760468532
