Time,Force,Position
15.549196000000002,2.672622452509158,0.1715960628359026
15.5516,2.8331662163720948,0.1697314177281345
15.553988,2.995853746466177,0.1671478494426547
15.556368,3.1512808393950063,0.1644290769767129
15.558764,3.2939077236281538,0.1622785112706515
15.561152,3.423454859911901,0.1605665393330478
15.563532000000002,3.5416448097389424,0.1591093285488924
15.565928,3.6406542657208463,0.1582386466837784
15.568316,3.730121644537359,0.1573950302302433
15.570696000000002,3.80650927540447,0.156612559552685
15.573096,3.868094596829484,0.1559746169003636
15.57548,3.9265162303806944,0.1551825315422232
15.577864000000002,3.974417399378492,0.1545274503546153
15.61132,3.963849712996837,0.1544067998006917
15.613716,3.965200187437196,0.154341524884453
15.616112,3.972277424863085,0.1541213809313475
15.6185,3.9855007341550848,0.1537101957494657
15.62088,4.0000272960592005,0.153303918141102
15.623276,4.006824994231369,0.1531121229579169
15.62566,4.0204203905757065,0.1527308482381613
15.628040000000002,4.032153455800487,0.152394428365335
15.630444,4.046959556958322,0.1519632767030834
15.683012000000002,4.163978440368632,0.1519056864946036
15.685392,4.171008455966278,0.1517690681923674
15.687796,4.18167058600442,0.1514928901068242
15.690180000000002,4.188747823430309,0.1512897543067423
15.69256,4.196895996042836,0.1510476946850752
15.694964,4.205183938282224,0.1507916406993132
15.697352000000002,4.216544916454668,0.1504412793545767
15.699736,4.228744512388273,0.1500231044599641
15.702132,4.23922154682918,0.1496342536539388
15.704516000000002,4.243692279030837,0.1494159251944125
15.7069,4.247883471978775,0.1492198526138133
15.709296000000002,4.254356304926849,0.148941582809096
15.711684000000002,4.2631107778750605,0.1485807389725651
15.714064,4.274007121196549,0.1481447581225229
15.71646,4.286626026010734,0.1476763123493639
15.718844,4.300967492317615,0.1471791576883815
15.721224,4.317730368251495,0.1465881941904748
15.72362,4.332258826013479,0.1460243701882419
15.726008,4.341619599297375,0.1455507129398715
15.728404,4.352423394820247,0.1450696100348026
15.730808,4.3621562551564805,0.1446335338830996
15.733192,4.367745144373019,0.1443254944912039
15.735572,4.369469601723585,0.1441127790356906
15.737972,4.369843584633792,0.143954403954631
15.740356000000002,4.37487339534289,0.1436944449942623
15.74274,4.382976241985045,0.1433516682895917
15.745136000000002,4.390986540828581,0.1429593806008875
15.747524000000002,4.393921702992645,0.1427044566158431
15.749904,4.398579426649406,0.1424215277559435
15.752304,4.405890877358642,0.1420889762123381
15.754692000000002,4.41841723437421,0.14160825923298
15.757072,4.428429633964163,0.1411649902054513
15.759468000000002,4.431504565755088,0.1408931210552342
15.761856000000002,4.433368792732514,0.1406646076875551
15.764236,4.434813710829359,0.1404735189821708
15.76664,4.435607002620146,0.1402791820936
15.769032,4.4368196032915135,0.1400505408318035
15.773812,4.429651713924877,0.1399993187761191
15.804876,4.452460530494773,0.1399870855302824
15.807256,4.472152881019109,0.1397724973920845
15.809652,4.496081750461755,0.1395012683662138
15.81204,4.524666447703294,0.1391463364291062
15.814424,4.556044641624167,0.1387491986079737
15.81682,4.588586318530295,0.1383879041191175
15.819208,4.627785923981733,0.1378945616632286
15.821588000000002,4.6795572124191125,0.137098270279503
15.823984,4.728255464923436,0.1363908826689957
15.826372,4.7768139478009,0.1356905914934144
15.828752,4.8269552225442,0.1349760370039989
15.831152,4.878027662847278,0.1342602466750743
15.83354,4.927657080911381,0.1335614414447639
15.835920000000002,4.977566038229202,0.1328445074351084
15.838316,5.026823369240968,0.1321226843281688
15.840704,5.074078599506316,0.1314512174262547
15.843088000000002,5.12305639126436,0.130766142055806
15.845488,5.176317923768957,0.1299880286503961
15.847872,5.23386319702011,0.1291225809589626
15.850252,5.291548239898123,0.1282519715266987
15.852656,5.346719325350522,0.1274221981918294
15.855044,5.395651791138191,0.1267029061260322
15.857428,5.4434207739406055,0.1259718198570877
15.859824,5.484951137078293,0.1253266733163354
15.862208,5.521965442043949,0.1247497264376704
15.864588,5.553672292904654,0.1242388069413943
15.866992,5.581142624847049,0.1237717649166622
15.86938,5.599021761937942,0.1234669526310636
15.871760000000002,5.6174599775362735,0.1231275667279564
15.87416,5.637388437201825,0.1227393980629184
15.876544,5.656944809815039,0.1223279181885638
15.878924,5.671985124256221,0.1219715375051612
15.881324,5.682229841271652,0.1216865863015877
15.883708000000002,5.693033636794524,0.1213672722273104
15.886092,5.703185806011337,0.1210417139661521
15.888488,5.713245427429533,0.1206747509557088
15.890876000000002,5.723212501049113,0.1202701065027112
15.893256,5.729315142802719,0.1199261729320816
15.895652000000002,5.722101927465708,0.1197656037120994
15.898040000000002,5.71423708582264,0.1195988802609974
15.900436,5.706651783433292,0.1194141096475861
15.902832,5.693991344364471,0.119315244709858
15.90522,5.679468574176094,0.1192392858038272
15.907600000000002,5.667739300667053,0.119127649873721
15.910004,5.654659552717652,0.1190551228785054
15.912392,5.644233531820726,0.1189558370554032
15.914772,5.634598906856717,0.1188533353449117
15.917172,5.624684742638989,0.1187688440623235
15.924336,5.586699633716789,0.1187567295844066
15.926724,5.576738247670817,0.1187224574254347
15.941056,5.5215294196795215,0.1187014835471691
15.943436000000002,5.523625964082424,0.1185656814021841
15.94584,5.530518105911078,0.1183658957015724
15.948228,5.536199542926234,0.1181962638104997
15.950608,5.547887282180641,0.1179313526672527
15.953008,5.561018043674024,0.1176709274295034
15.955396,5.57121553886121,0.1174529623058432
15.957776,5.585557005168091,0.1171631894031403
15.960176,5.596173809235861,0.1169173606644764
15.962564,5.607861548490268,0.116652613435837
15.964944,5.619549287744675,0.1163865169238622
15.96734,5.632727271066301,0.1160723196028614
15.969732,5.645393397708729,0.115744154395969
15.972112,5.657779985097438,0.1154344907502581
15.974512,5.668955867672647,0.1151547131276018
15.9769,5.6770587143148,0.1149288322768376
15.97928,5.689165762449788,0.1146410248673698
15.981676,5.700062105771276,0.1143826575493157
15.984064,5.711749845025683,0.1141212372271806
15.986448,5.730235282452259,0.1137616376663167
15.988844,5.752445382117947,0.1133571902541693
15.991232,5.761432172491637,0.1131734494067344
15.993616,5.762550329506517,0.1131034352044633
15.998404,5.759012658722508,0.1130870269098154
16.00078,5.757197549431194,0.113057971257131
16.003184,5.7591071023789935,0.1129865602069605
16.005572,5.760876885699933,0.1129244936476738
16.007956,5.767582036073485,0.1127931007479155
16.010352,5.774147416820177,0.1126713346544208
16.012736,5.784437459805981,0.1125092575680425
16.015116,5.794447963538064,0.1123646328094673
16.017512,5.8040391583895685,0.112246122856825
16.0199,5.81456151880085,0.1121178465566311
16.022280000000002,5.8287159936526285,0.1119108630170095
16.024676,5.846083274064323,0.1116522439602875
16.027064,5.862519388916239,0.1114059915490346
16.02946,5.8765813159694,0.1111622282355546
16.031856,5.89213348708978,0.1108764984764669
16.034244,5.907825427837021,0.110586124246266
16.036624,5.922074346345285,0.1102921623926105
16.039028000000002,5.939024213734268,0.1099265761283379
16.041412,5.957045016309889,0.1095389882480468
16.043792,5.974553962206311,0.1091328624989033
16.0462,5.99634664884929,0.1086576711558293
16.048588,6.01613723474585,0.108214230968041
16.050964,6.033413863216796,0.1077844447839221
16.053368,6.048967930195045,0.1073680730676269
16.055756,6.062659666053738,0.106973236778527
16.058136,6.075420236352652,0.1065889746900986
16.060532000000002,6.0839442877332575,0.1062273871408418
16.062920000000002,6.0961004535543575,0.1057936535260003
16.0653,6.106673827509621,0.105360470488914
16.067700000000002,6.116875114412546,0.1049056258286126
16.070084,6.12186149500914,0.1045290718829224
16.072464,6.116557832619929,0.1042951458470574
16.07486,6.106318803178106,0.1041212316887842
16.127428000000002,5.826495195722796,0.1039966676438327
16.129808,5.831243571320305,0.1039937170243281
16.132204,5.84372081064976,0.1039058900324165
16.134588,5.859550625165992,0.1037614351762423
16.136968,5.874821361174782,0.1036502024198039
16.139368,5.89153511942255,0.1035486140196213
16.141752,5.911554231028848,0.1034384290928305
16.144132,5.92915193300815,0.1033762562804869
16.146528,5.950614066853426,0.1032740880862325
16.148916,5.980084603684366,0.1030731303063928
16.151296000000002,6.0127679460752255,0.1028288237112576
16.153712,6.0474533892125,0.102560815653718
16.156100000000002,6.083489306790134,0.1022642353851253
16.15848,6.127952936234016,0.1018471472030099
16.160884,6.177259384931895,0.1013414069437494
16.163268000000002,6.228847473629908,0.1008026909018628
16.165652,6.278852770462086,0.1002627955286806
16.168048,6.325133405055151,0.0997640829187287
16.170436000000002,6.3684807733420215,0.0993043075511811
16.172816,6.4111765153228335,0.0988357040556879
16.175212000000002,6.450287364691392,0.0983927525769409
16.1776,6.490608918873449,0.097931681207093
16.17998,6.523993005256478,0.0975486901860437
16.182376,6.553233120519813,0.0972204041489254
16.184764,6.5822409183576704,0.0968633642919255
16.187144,6.608594989143053,0.0965232807031951
16.18954,6.633925346570039,0.0961570675684083
16.191928,6.6631673576912425,0.095712781773379
16.194324,6.690826576946611,0.0952731625269736
16.19672,6.717042773963003,0.0948327885779384
16.199108,6.736181733553505,0.094469212149786
16.201488,6.759604433890562,0.0940573142532424
16.203888,6.781304572734922,0.0936543831463154
16.206272000000002,6.79806934452667,0.0933002961786022
16.208652,6.80761710926567,0.0930261623746783
16.21106,6.8123692765789166,0.0927905207125158
16.213444,6.822476119825358,0.0924918949894572
16.215828000000002,6.832071106392599,0.0921799473653125
16.218224,6.838220969974448,0.0918776701402309
16.220612,6.847583639116214,0.0915382937975674
16.222992,6.860019344191035,0.0911689696003563
16.225392,6.870732487773159,0.0908065387548243
16.22778,6.886940076915335,0.0903762898113279
16.230156,6.907431406804066,0.0898989139597904
16.232564,6.924849700759741,0.0894507540922107
16.234952,6.939614267662941,0.0890112987494486
16.237332000000002,6.947301597140252,0.0886362010198743
16.239728,6.951636351430788,0.0883065212606066
16.242116,6.9536894657211885,0.0880086233457889
16.244496,6.951738378518752,0.0877466784233355
16.2469,6.952860327249372,0.0874535326166849
16.249288,6.942761067434409,0.0872683866874431
16.251668000000002,6.934524138739003,0.0870723809524461
16.254068,6.926147440416736,0.086882712476193
16.256452,6.921914713214163,0.0866504148551061
16.258836,6.919684086758007,0.0863998942800584
16.261232,6.910096683622243,0.0862281502400776
16.263616,6.900229741232757,0.0860695832082196
16.265996,6.896601418508,0.0858875738371315
16.2684,6.889480750969606,0.0857550728461858
16.270788,6.880218213057936,0.0856463404229705
16.277952,6.834317248948685,0.0855529778510794
16.280332,6.8208635180890775,0.0855245054434379
16.282728,6.8119258454015,0.0854776855149958
16.285116000000002,6.812579367565428,0.0853680435793059
16.287496,6.814303824915992,0.0852467687497242
16.289896,6.816168051893419,0.085118524114481
16.292284000000002,6.815750638870708,0.085019369988757
16.294664,6.817614865848134,0.0848906422510488
16.297060000000002,6.827347726184367,0.084700920507721
16.299448,6.830794745027629,0.0845745137939701
16.301844,6.836383634244168,0.0844247556186465
16.30424,6.841692984206986,0.0842892429988539
16.306628,6.848585126035642,0.0841579307175019
16.309008000000002,6.857619138237573,0.0840023818181485
16.311408,6.865442445626005,0.0838651851735376
16.313796,6.870472256335104,0.0837439326438958
16.316176000000002,6.87657300223084,0.083610856776842
16.318572,6.881742582566799,0.0834825890064582
16.32096,6.883978896596563,0.0833754643686069
16.32334,6.889428016186242,0.0832335208321205
16.32574,6.904608100254286,0.0830221570555968
16.328124,6.909917450217105,0.0828877541817348
16.330508000000002,6.91243330350059,0.0827679909398116
16.332912,6.9101535593583225,0.0826789466119112
16.335296,6.909456607081891,0.0825940059607104
16.337676000000002,6.914486417790988,0.0824756139973744
16.340072,6.928455797045531,0.0822906007496137
16.34246,6.941074701859716,0.0821313531583041
16.34484,6.953833376300762,0.0819672565683247
16.34724,6.972877892234777,0.0817440051347958
16.349624000000002,6.992062177795653,0.0815162317128299
16.352008,7.01138623298339,0.081283536619979
16.354404,7.028336100372371,0.0810454846291439
16.356792000000002,7.050500874067686,0.0807636492840251
16.359188,7.074667748509418,0.0804673996255845
16.361592,7.094318564779119,0.0801848281778623
16.363976,7.116530560302677,0.0798644941566054
16.36636,7.14181559175929,0.0795209331459264
16.368756,7.171384363962458,0.0791371640764728
16.37114,7.2010929057924855,0.0787500982271187
16.37352,7.230149821316455,0.0783610242967814
16.37592,7.262140003146621,0.0779524681813535
16.378304,7.296272055350063,0.0775251894059524
16.380688,7.335619013859837,0.0770587018543387
16.383084,7.368587583078024,0.0766105528668579
16.385472,7.393455201511925,0.0761863903382181
16.387856,7.413666992146937,0.0757852805862706
16.390252,7.429083185356195,0.0754067763851646
16.39264,7.437841450020145,0.0750585708243067
16.39502,7.443666448377901,0.0747283177857391
16.39742,7.450422612295434,0.0743966116039331
16.399808,7.459320646586245,0.0740485567645281
16.402188,7.47115194718325,0.0736859671522335
16.404584,7.475906010354366,0.0733716900227958
16.406976,7.484943814272037,0.0730240629777441
16.409356,7.502641647481433,0.072637855218196
16.411752,7.520059941437107,0.0722672705538022
16.414136,7.536686839459865,0.0718967897727124
16.416520000000002,7.552103032669123,0.0715435060783262
16.418916,7.566448290691744,0.0712002320176235
16.421304,7.574927016101974,0.0708862130879071
16.423684,7.586618547072119,0.0705486619290724
16.426092,7.599381013228903,0.0702051369880718
16.428476,7.607999508265991,0.0698917828251261
16.430856000000002,7.625557571848527,0.0695332618379211
16.43326,7.646281219162736,0.0691860621716361
16.435648,7.666865096850082,0.0688455980208537
16.438028,7.692663880843763,0.068469318226406
16.440424,7.724049658196113,0.0680762544790114
16.442812,7.758228932227798,0.0676774988633038
16.445192,7.789335170326428,0.0672993677398725
16.447596,7.813224401372309,0.0669669841523087
16.449984,7.832829891671635,0.0666677724316794
16.452368,7.8580223753296305,0.0663546846723948
16.454764,7.875066686375099,0.0660905075999836
16.457152,7.8851735296215395,0.0658609488023722
16.459532,7.892347106561784,0.0656445056249145
16.461928,7.89695950424817,0.065460596305533
16.464316,7.901292362680838,0.0652883929654521
16.4667,7.907347782606201,0.0651180602549702
16.469096,7.913775289583902,0.0649667420836562
16.471484,7.915779286188187,0.0648523266929798
16.473868,7.917084434658172,0.0647661597730909
16.476264,7.916899339060938,0.0647040760748732
16.478648,7.914944460142764,0.0646773770198431
16.481032,7.916062617157645,0.0646338317543219
16.483428,7.917832400478585,0.0645992468744849
16.485816,7.920905436411641,0.0645826177055391
16.4882,7.926120342717974,0.064551658593401
16.490596,7.929193378651028,0.0645353282924193
16.492984,7.932126644957224,0.0645243282225394
16.495364000000002,7.940926443875808,0.0644912066843291
16.497764,7.9537304442872285,0.0644399648302676
16.500148,7.964811883205951,0.0643877030255516
16.502548,7.979757753990647,0.0643226270248918
16.504944000000002,7.996286416641181,0.0642643516918548
16.507332,8.011185065597632,0.0642344327995033
16.509712,8.032090016793337,0.0641777303053886
16.512108,8.050061701682846,0.0641317118133071
16.514496,8.067241990639436,0.064082843867448
16.51688,8.088706020342581,0.0640052964243629
16.519272,8.113522625232502,0.063901422499422
16.52166,8.133031776017473,0.0637974454702659
16.524044,8.1538914012428,0.0636752633253788
16.52644,8.17172521236332,0.0635344880210781
16.528828,8.184763426058085,0.0634085669574816
16.531208,8.197801639752852,0.0632829921433472
16.533608,8.20939683120864,0.0631460652764422
16.535996,8.222994123410848,0.0630027094230454
16.538376,8.238873055613192,0.0628411943791892
16.540772,8.256893858188812,0.0626662904595739
16.543164,8.274123264831514,0.0624889349034622
16.545544,8.289210801100939,0.0623257828922544
16.54794,8.301365071064168,0.0621726240757712
16.550328,8.309794678788286,0.0620254994122443
16.552712,8.31692103390029,0.0618605815262559
16.555108,8.333685805692037,0.0616369830101676
16.557496,8.34300125300556,0.0614264068109803
16.559876,8.354877879572939,0.061187032758184
16.562276,8.3659631102074,0.0609448432520035
16.564664,8.379469750468857,0.0606822261604971
16.567048,8.39111405961076,0.060423652362
16.569444,8.408624901365053,0.0601468950249367
16.571832,8.427486217559705,0.059854828213922
16.574212,8.446067994500636,0.0595730937231048
16.576612,8.465860476255065,0.0592796310370605
16.579,8.483418539837603,0.0589700008676807
16.58138,8.496972401927305,0.0586752013137602
16.58378,8.502797400285058,0.0584012458553798
16.586168,8.505828901963477,0.0581314537976691
16.588564,8.5083485469627,0.0578485098273191
16.59096,8.509425169722947,0.0575531422972826
16.593348,8.512131806177274,0.0572325392007823
16.595732,8.517911478564654,0.0568989487759255
16.598128,8.529697453191286,0.0565451154800488
16.60052,8.544416694124111,0.056184007357866
16.6029,8.545400769085742,0.055861105096358
16.6053,8.545453678487592,0.0555368175258773
16.607688,8.546437753449222,0.0552124872685706
16.610072,8.545419727664434,0.0548943034399201
16.612468,8.538255630013536,0.0546014357156752
16.614856,8.530160366802859,0.0543090126709605
16.617236000000002,8.518340441353068,0.0540193382408286
16.61964,8.501585148850667,0.0537417280657134
16.622024,8.487902892281319,0.0534524285764107
16.624404000000002,8.47636250608525,0.0531519348283837
16.626808,8.466824220635596,0.0528446903089371
16.629196,8.46063851037272,0.0525153203059231
16.631576,8.458457001602675,0.052173642205306
16.633976,8.454413161713076,0.0518316196397949
16.636364,8.446876977009838,0.0515144976275351
16.638744,8.437990317866245,0.0512115508296612
16.641144,8.42388875241632,0.0509290759633559
16.643532,8.406714151033338,0.0506569915817555
16.645916,8.382602081851324,0.0504011979774917
16.648312,8.356348142296037,0.0501551743646793
16.6507,8.334610260912779,0.0499102844733189
16.653084,8.315526106581997,0.0496680186091569
16.65548,8.295231247437714,0.0494357441101947
16.657868,8.273865453106794,0.0492071322521972
16.660248,8.251288953962375,0.0489873045394171
16.662648,8.225359879631181,0.0487867936242253
16.665036,8.198080330859629,0.0486001704160143
16.667416,8.176387775446745,0.0484116979202102
16.669812,8.147478212981111,0.0482486415815284
