Time,Force,Position
17.440071999999997,3.041630318298792,0.1715867786072754
17.442452,3.184259098389809,0.1686318202713982
17.444847999999997,3.3210704635545483,0.1659253713499898
17.447235999999997,3.4507139393526503,0.1635556556328061
17.449616,3.5719788209706165,0.1613259338192245
17.452015999999997,3.6777878709825584,0.1596429710267008
17.504568,3.9187083003424856,0.158196481447989
17.506964,3.925366228887794,0.1580069702586201
17.509359999999997,3.938030459672353,0.1576230817302446
17.511743999999997,3.9485528200836346,0.1573195328838088
17.514124,3.956653770867919,0.1571226232459397
17.516527999999997,3.9723438157572906,0.156700445020212
17.518915999999997,3.9849608247136064,0.1563873185490454
17.521296,3.99794992072226,0.1561112472428251
17.523691999999997,4.015175535649225,0.1557607244788651
17.526079999999997,4.0385472224423,0.1552155875483293
17.52846,4.060568434795015,0.1547388532914206
17.530856,4.081378942334233,0.1543094649691192
17.533244,4.10246898912717,0.1538556512004986
17.535639999999997,4.117552733680858,0.1535932520910986
17.538031999999998,4.133427874167464,0.1533269547271492
17.540419999999997,4.156380252079958,0.1528335004483036
17.5428,4.185478701858563,0.1521407804791434
17.545195999999997,4.214716921264029,0.1514589556012109
17.547583999999997,4.2396713999229405,0.1509344164605064
17.549964,4.269701015261324,0.150261720490927
17.552367999999998,4.3009413354132064,0.149552330618001
17.554755999999998,4.329527928512612,0.1489175015570966
17.557136,4.356903816798522,0.1483402915842668
17.559535999999998,4.386561345084568,0.1476880098849298
17.561923999999998,4.418360743743891,0.1469688836304362
17.564304,4.451370847216713,0.1462178967605444
17.566699999999997,4.485731425129893,0.1454113348756517
17.569087999999997,4.51757804561746,0.1446466716630629
17.571472,4.54239465050738,0.1440124128524038
17.573867999999997,4.563207053904466,0.1434938639670241
17.576251999999997,4.583367830995496,0.1429690993949648
17.578636,4.605670478459802,0.1423792693853491
17.581031999999997,4.627414047416667,0.1418386621708951
17.583419999999997,4.653022048239505,0.1412107512289932
17.585815999999998,4.674765617196369,0.1406742275032333
17.588212,4.6983715172727925,0.1401102032576036
17.5906,4.718764611789298,0.1396437511802713
17.592979999999997,4.736364209626468,0.1392417316015045
17.595375999999998,4.757456152277276,0.1387338309560678
17.597763999999998,4.776034137502467,0.1382663292273848
17.600147999999997,4.791818626048325,0.1378558235726788
17.602543999999998,4.806252640153823,0.1374999647169683
17.604931999999998,4.821897359072821,0.1371099468650566
17.607311999999997,4.8367506820589,0.1367311979234282
17.609712,4.852023313925559,0.1363245013786061
17.612095999999998,4.860870334672388,0.1360814191014386
17.614479999999997,4.868506650605718,0.1358775712624127
17.616875999999998,4.8804267072856025,0.1355680321361593
17.619263999999998,4.899004692510795,0.1351356506919007
17.621647999999997,4.915999885870151,0.1347136709492495
17.690939999999998,4.8593046055273765,0.1345767108136082
17.693336,4.865123916311523,0.1345217267032201
17.695732,4.876437672655724,0.134326583563456
17.69812,4.894177040119754,0.1339738031577692
17.700499999999998,4.9164324657558165,0.1335497582873099
17.702896,4.936266481764881,0.1331932529344443
17.705284,4.961175634453419,0.1327207739342819
17.707663999999998,4.98464176490298,0.1322556807079685
17.710068,5.002241362740151,0.1319105547891801
17.712452,5.019701190950464,0.1315731564712608
17.714831999999998,5.040466372519306,0.1312036263704198
17.717228,5.0605799277820935,0.1308290189156608
17.719616,5.075758115992267,0.1305530973452659
17.721995999999997,5.091867469762218,0.1302652343232047
17.724396,5.108628449838228,0.1299837937620259
17.726779999999998,5.126088278048537,0.1296547905775492
17.729163999999997,5.139963213646595,0.1293810843394145
17.731559999999998,5.151696278871376,0.1291604179757255
17.733943999999997,5.164640048909655,0.1289074102592017
17.73634,5.175581718201518,0.1286930153853467
17.738736,5.183729890814046,0.1285233200692277
17.741124,5.191086667493656,0.1283613558980637
17.743503999999998,5.200445544919681,0.1281651274349008
17.7459,5.209664652718847,0.127982214913279
17.748288,5.221956796451069,0.1277425565122885
17.750667999999997,5.245609918355734,0.1272841613663806
17.753072,5.268751183581201,0.1268159946557052
17.75546,5.291752679179808,0.1263615973382416
17.757839999999998,5.318478837017528,0.1258552559006956
17.760236,5.346555469295607,0.125306454580052
17.762624,5.373468618588431,0.1247400455502248
17.765003999999998,5.402383868627672,0.1241423645657997
17.767404,5.436793564226965,0.1234232771965597
17.769792,5.463474396094311,0.1228193489405729
17.772171999999998,5.488712205722681,0.1222135131342349
17.774568,5.512739310537552,0.1216465281835505
17.776956,5.536766415352424,0.1210806612317342
17.779352,5.558000023487959,0.1205487061482042
17.781747999999997,5.574158494944023,0.1201084217593767
17.836692,5.397220150483809,0.1199789570633585
17.839087999999997,5.395312493393878,0.1199070148940911
17.841475999999997,5.399131599289478,0.119755904084657
17.843856,5.40583674966303,0.119612426736077
17.846252,5.420922390074586,0.1193603133369392
17.84864,5.439732692725255,0.1190622950465436
17.851024,5.457564607987903,0.1188281347862306
17.85342,5.473906279183333,0.1186418742093015
17.855808,5.488106080005484,0.1184994151212994
17.858188,5.502166111200776,0.1183647816435695
17.860584,5.524374315008595,0.1180914120794416
17.862972,5.544999726950579,0.1178233441306344
17.865356,5.569769110012256,0.1174885214781562
17.867752,5.597891068260711,0.1170877098261658
17.870136,5.629225832069079,0.1166248750604957
17.872535999999997,5.661631531064085,0.1161478106986227
17.874931999999998,5.695899561178648,0.1156554117481165
17.877315999999997,5.7258838505466585,0.1152465364330845
17.879696,5.754936974354889,0.1148509324091177
17.882091999999997,5.783338471857062,0.1144498604605833
17.88448,5.814393696411712,0.114032925377709
17.88686,5.848242417645694,0.1135942367665691
17.889256,5.878366476640564,0.1132028353962851
17.891644,5.908957066344257,0.1127415796534147
17.894039999999997,5.936242302689419,0.1122982352080365
17.896444,5.961013581608966,0.1118722712837697
17.898832,5.983829981610338,0.1114218007147496
17.901211999999997,6.009207560865568,0.1109098122727431
17.903608,6.0336539745610205,0.1104066228995377
17.905996,6.060242258629749,0.1098665408822167
17.908375999999997,6.082034945272727,0.1093926431505652
17.910776,6.1036878622888455,0.1089252990781674
17.913164,6.119194707438852,0.1085540790435639
17.915543999999997,6.13228014296186,0.108238457647753
17.917939999999998,6.146017204790927,0.1079322887564431
17.920327999999998,6.156541461060076,0.1076793732622584
17.922707999999997,6.166414091023169,0.1074230166981762
17.925107999999998,6.1784285913595385,0.1071323566233247
17.927491999999997,6.192305422815466,0.1068252806563442
17.929875999999997,6.208184355017812,0.1064944110072568
17.932271999999998,6.216334423488208,0.1062510299905224
17.934659999999997,6.219409355279132,0.106077319288559
17.93704,6.2214133518834185,0.1059201094517914
17.939439999999998,6.222438961099684,0.1058187551092428
17.941827999999997,6.2282601677417,0.1056674969366695
17.944208,6.232730899943357,0.1055480490234553
17.946603999999997,6.24465095662324,0.1053616673833023
17.948991999999997,6.256943100355463,0.1051995073711831
17.951372,6.27216851039388,0.1050052126545144
17.953767999999997,6.2906067259922125,0.1047670739568449
17.956156,6.309976107150323,0.1045225156035832
17.95854,6.333209920174407,0.1042397147829622
17.960935999999997,6.358865142825488,0.1039112229940207
17.963323999999997,6.38507944398401,0.1035548591221073
17.965719999999997,6.407569082903419,0.1032303037538919
17.968116,6.431129657009467,0.1028891177683596
17.970499999999998,6.45040649036896,0.1026106636498164
17.972883999999997,6.471685424474871,0.1023124706561845
17.975284,6.488960157087948,0.1020605267407113
17.977667999999998,6.504232788954607,0.1018333834739817
17.980051999999997,6.525232183806797,0.1015507868295234
17.982456,6.549164844965183,0.1012383823099001
17.984844,6.574028671683346,0.1009174477465632
17.987223999999998,6.597309706535674,0.1005971238147244
17.98962,6.616446770268307,0.100333648242743
17.992012,6.637865474001077,0.1000328959589524
17.994391999999998,6.653557414748317,0.0997882178083456
17.996792,6.668597729189499,0.0995379104273481
17.99918,6.681915482137986,0.0992967452200732
18.001559999999998,6.690018328780139,0.0991230309299635
18.00396,6.696910470608794,0.0989715387665826
18.006348,6.701800511691032,0.0988426774081117
18.008732,6.707202409452468,0.0987291070169225
18.011128,6.709251732027129,0.0986650445135095
18.013516,6.717167587214179,0.0985453630333109
18.015896,6.728156478334286,0.0983918759443027
18.018292,6.744220506133864,0.0981834393165079
18.02068,6.757351267627246,0.0980042677603016
18.02306,6.7767678706136,0.0977512480457093
18.02546,6.7951135384133154,0.097511648155949
18.027848,6.813087119160693,0.0972533118452033
18.030232,6.829198368788514,0.0970095918743974
18.032628,6.846799862483555,0.0967331030264709
18.035016,6.8623992554321775,0.0964747267467054
18.037396,6.874925612447746,0.0962482448500962
18.0398,6.886520803903537,0.0960294445166214
18.042184,6.897976225732465,0.0958169587426067
18.044564,6.908780021255336,0.0955981351575155
18.04696,6.919164507897627,0.095400301880039
18.049348,6.929548994539919,0.0952017309350061
18.051728,6.940213020435929,0.094989530343594
18.054132,6.951436124839383,0.0947509977536162
18.05652,6.958143171070804,0.0945375179879153
18.0589,6.970204893235417,0.0942581248100599
18.061296,6.9766796220413605,0.0940183772679239
18.063684,6.975565256742219,0.0938356607146651
18.066064,6.968584358830684,0.0937045409785604
18.068468,6.959741129799595,0.0935857197194566
18.070856,6.94088739703642,0.0935642526414582
18.073236,6.926317405019799,0.0934892616239967
18.07564,6.909465773003042,0.0934466037874432
18.078024,6.89447647210584,0.0933911860857455
18.080404,6.87799692714142,0.0933685372611684
18.0828,6.868594619602891,0.0932758516471268
18.085188,6.867899563184328,0.0930745721965555
18.087568,6.866785197885185,0.0928936194354841
18.089964,6.8670213070264,0.0926863079755854
18.092352,6.867117646540755,0.0924859691375812
18.094732,6.869775165308968,0.0922410824575246
18.097132,6.874854093704178,0.0919581275205927
18.099516,6.8797932524725285,0.0916821953705314
18.1019,6.879237965680826,0.0914743655896082
18.104296,6.884549211501515,0.0912189970232223
18.106684,6.882643450269454,0.0910370025403999
18.10908,6.8815290849703095,0.0908554172002137
18.111476,6.888934979336032,0.0906156933160984
18.113864,6.899413909634809,0.0903443351504815
18.116244,6.908821904746947,0.0900834745657519
18.118644,6.9260985332178935,0.0897535955940481
18.121032,6.9361581546360895,0.0894990448366733
18.123412,6.945146840867647,0.0892561039635426
18.125808,6.949619468927175,0.0890355211262895
18.128196,6.953580240307504,0.0888000112150447
18.13058,6.954328206127918,0.0886042824707923
18.132976,6.947579625641861,0.0884961556524973
18.135364,6.941390123663246,0.0883608506752578
18.154484,6.803173478798428,0.0882488379113557
18.156872,6.787764869020646,0.0882016138265471
18.159252,6.766629496257334,0.0881934969708651
18.161644,6.749358555359996,0.0881554881494431
18.164032,6.73823368632877,0.088057862587817
18.166412,6.725246486177987,0.0879704619735067
18.168808,6.718265588266452,0.0878310814481155
18.171196,6.713426560728196,0.0876672734377834
18.17358,6.711101490615555,0.0875005794413718
18.175976,6.70914850755525,0.0873555963405212
18.178364,6.706124589308308,0.0872228539754291
18.18076,6.707896268487116,0.0870572944342103
18.183156,6.707386307665787,0.0869222366337835
18.185544,6.7065968075907385,0.0868010977541162
18.187924,6.712605005687857,0.0866305740094992
18.19032,6.730625808263479,0.0863580384669308
18.192708,6.75479268270521,0.0860293979435394
18.195088,6.784686320132471,0.085665771861006
18.197488,6.819375554985485,0.0852744279832291
18.199872,6.86007109207775,0.0848316989423437
18.202252,6.900487089916293,0.0844059833190236
18.204648,6.935268872567923,0.0840550007273786
18.207036,6.973775317458667,0.0836853583467443
18.209432,7.003342193803966,0.0833859160866195
18.211828,7.029556494962488,0.0831301375284764
18.214216,7.057633127240567,0.0828671945132963
18.216596,7.08291626283931,0.0826199419515724
18.219,7.113134765490666,0.082341301182281
18.221388,7.143772577022602,0.0820443160930796
18.223768,7.17496946706198,0.081722244362007
18.226164,7.207516831541716,0.0813781038076287
18.228552,7.233546037103005,0.0810650944660329
18.230936,7.263719213783988,0.0807160915339431
18.233332,7.292449368225996,0.080357645426946
18.23572,7.314521594122693,0.0800375783451435
18.2381,7.327654251473945,0.0797838409761481
18.240496,7.335572002518864,0.0795778399816117
18.24288,7.339765091324669,0.0793899370671433
18.245264,7.33608954677167,0.079253618584597
18.247668,7.33148283665889,0.0791217474539034
18.250056,7.325153565053415,0.0789915811293373
18.252436,7.317381271208962,0.0788502214127573
18.254832,7.307886415871815,0.0787107567358831
18.25722,7.304537632400778,0.0785216183478984
18.2596,7.30146838818346,0.0783199934915758
18.261996,7.296397043219727,0.0781329990627256
18.264384,7.29318802937555,0.0779381616667554
18.266764,7.281970612545705,0.077799395059125
18.26916,7.272475757208557,0.0776591092850296
18.271548,7.265494859297023,0.0775200751034774
18.273932,7.255440925452435,0.0774041277519095
18.276328,7.254047020899572,0.0772428826400678
18.278716,7.252513346719848,0.0770885789218271
18.281112,7.250700133286404,0.0769461064552885
18.283508,7.253822286905573,0.0767736533320102
18.285896,7.262159346831073,0.0765593089125559
18.288276,7.272126420450652,0.0763111142038282
18.290676,7.282373033323951,0.0760515767782981
18.29306,7.3007678188097795,0.0757350424469721
18.295444,7.318231438735828,0.0754232219119874
18.29784,7.338348785714352,0.0751084142787654
18.300228,7.365403600491905,0.0747539650633114
18.302608,7.392598184896319,0.0743949455431953
18.305012,7.419652999673872,0.0740444501385699
18.3074,7.445636879264787,0.0737034238185085
18.30978,7.470829362922783,0.0733599000961559
18.312176,7.493088580274583,0.073032124323568
18.314564,7.517349898372802,0.072690171771986
18.316944,7.536675849418407,0.0723761332055197
18.319344,7.554838317478758,0.0720419190609397
18.321728,7.573931951098888,0.0717035379108354
18.324112,7.584365555427291,0.0714059193874124
18.326508,7.592145432703219,0.0711124785469169
18.328896,7.600996245165785,0.0708100779425437
18.331276,7.60584285613552,0.0705318227041901
18.333672,7.609478762291753,0.0702698438255723
18.33606,7.6126953595674065,0.0700258673290255
18.338444,7.612419612029425,0.0698190969943021
18.34084,7.606928958185112,0.0696505271052501
18.343224,7.601578073967659,0.0694760596512038
18.34562,7.596786268257644,0.069279132467336
18.34802,7.58598816030838,0.0691155529320566
18.350408,7.573979347545618,0.0689657163073367
18.352788,7.561039369223077,0.0688183051031921
18.355188,7.550241261273813,0.0686541057568222
18.357576,7.542516189257605,0.0684709455168017
18.359956,7.541728585040425,0.0682543560880103
18.362352,7.543222620823382,0.0680161467445829
18.364736,7.549931562912673,0.0677433856730677
18.367116,7.555941656867662,0.0675002886423181
18.369516,7.566235491569206,0.0672268845276145
18.3719,7.5813249236965,0.066935951525428
18.374284,7.595995046943215,0.0666616803079386
18.37668,7.611456566122847,0.0663916966717571
18.379064,7.629851351608674,0.0661096317930329
18.38146,7.644241935601668,0.0658471788058475
18.383856,7.657841123661743,0.0655813362811974
18.386244,7.674653117281735,0.0652910218652739
18.388628,7.691465110901725,0.0650002598814129
18.391024,7.707997565267997,0.0647215632933286
18.393408,7.717964638887576,0.0644951389889541
18.395788,7.73207568362685,0.0642439353382953
18.398192,7.749259764299179,0.0639761961148004
18.40058,7.769377111277704,0.0636987910482852
18.40296,7.790285854189146,0.0634271658101386
18.405356,7.807842021913812,0.0631848175254985
18.407744,7.81832095221259,0.0629794797531975
18.410124,7.829591278444284,0.0627794309534743
18.41252,7.838719734302702,0.0625950954492263
18.414908,7.845985859041565,0.0624144449266893
18.417304,7.848828473407011,0.0622687680958109
18.4197,7.851810857399318,0.0621182395916654
18.422088,7.857214651018624,0.0619429236624739
18.424472,7.864900084638067,0.0617494660455585
18.426868,7.8736564534441476,0.0615502548974699
18.429252,7.889490059676118,0.0613196496462
18.431636,7.907325766654504,0.0610814570415327
18.434032,7.92716357437931,0.0608364613224859
18.43642,7.950214187664028,0.0605724788758315
18.4388,7.972473405015829,0.060304840508959
18.4412,8.0010184638606,0.0600016409831604
18.443584,8.027281882705235,0.0597190956420594
18.445968,8.050612035243676,0.0594473132946262
18.448364,8.071940087035697,0.0591857474064914
18.450752,8.091545577335024,0.0589230322645315
18.453132,8.111430606888069,0.0586495297337249
18.455532,8.1305242405082,0.0583704569185119
18.457916,8.146544838195274,0.0581065819759701
18.4603,8.16149450069571,0.0578492782881439
18.462696,8.176304393569282,0.0575967361115443
18.46508,8.192464760883215,0.0573273367386212
18.46748,8.206623027450732,0.0570662557372626
18.469876,8.220222215510809,0.0568272870398558
18.47226,8.230608598010969,0.0566086884037564
18.474644,8.237270318272016,0.0563948785429049
18.47704,8.236994570734035,0.0562042744966485
18.479428,8.234716722449635,0.0560209340894145
18.481808,8.23029700379196,0.0558502508773501
18.484208,8.224526810693925,0.0556964043315639
18.486592,8.221689883902085,0.0555349506955716
18.488972,8.218061561177327,0.0553698558414595
18.491372,8.215504173639207,0.0551990884611818
18.49376,8.216019822034145,0.0550161774417623
18.49614,8.213741973749745,0.0548354484931362
18.498536,8.210113651024987,0.0546704446936055
18.500924,8.21142069535284,0.054492502987257
18.503308,8.219665207479723,0.0542952520042814
18.505704,8.228840885166385,0.054097278640668
18.508092,8.240018663599463,0.0538932767831319
18.510488,8.2525469164729,0.0536736945917531
18.512888,8.262793529346201,0.0534702063497277
18.515276,8.271969207032862,0.0532719235990059
18.51766,8.279562092853688,0.0530649558602092
18.520056,8.284361481995179,0.0528591749069094
18.522444,8.291395289308564,0.0526717225390504
18.524824,8.305226794794116,0.0524709017380287
18.52722,8.321712027332143,0.0522740877287834
18.529608,8.33940796468367,0.0520675202025383
18.531988,8.354170635729002,0.0518673707519468
18.534384,8.365860270841278,0.0516793658852219
18.536772,8.373266165206998,0.0515131430967693
18.539152,8.377599023639663,0.0513582004986239
18.541548,8.38030186837825,0.0512292438671238
18.543936,8.383796109049758,0.0511045438291776
18.546316,8.38971175934826,0.0509593147945066
18.548716,8.391483438527072,0.0508313081570364
18.551104,8.38845952028013,0.0507104288496383
18.553484,8.386506537219825,0.050584485002961
18.555888,8.38455355415952,0.0504588564739738
18.558276,8.382460801472353,0.0503381615752662
18.560656,8.383441084718246,0.0502068741075543
18.563052,8.386283699083693,0.0500749026008518
18.56544,8.390197248635777,0.0499378854795634
18.56782,8.39597312930742,0.0497999687956344
