Time,Force,Position
16.674292,3.554461978078649,0.1653598001889787
16.722091999999996,3.657377400181163,0.1648686982946554
16.72448,3.6630569413384495,0.1647624164932681
16.726860000000002,3.674043936600687,0.1645144717071313
16.729256,3.69289956522173,0.1640023049623606
16.731643999999996,3.713989612014669,0.1634747477663006
16.734023999999998,3.736010824367385,0.1629261550576829
16.736424,3.757240640787183,0.1623975324566305
16.738808,3.7756769605276457,0.1619493721870956
16.741191999999998,3.797186316201164,0.1613876216933413
16.743587999999995,3.822188016688318,0.160676803494442
16.745976,3.850542292362249,0.1598131428328283
16.748371999999996,3.8782449417301215,0.1589432925147066
16.750768,3.897427331433129,0.158342575221642
16.753155999999997,3.912093662964105,0.1578660006487066
16.755536,3.9226160233753857,0.1575426469789924
16.757939999999998,3.936211419719722,0.1571116508297792
16.760328,3.9485961112505614,0.1567382083778358
16.762712,3.9667075657669306,0.1561932763372546
16.765107999999998,3.989754387335912,0.1554831730141506
16.767491999999997,4.014523770397589,0.154753533631025
16.769875999999996,4.037011513459129,0.1541276956446786
16.772272,4.059499256520668,0.1535249345385601
16.774659999999997,4.081103055850673,0.1528848545989325
16.777043999999997,4.092464034023116,0.152513264621641
16.77944,4.1001003499564455,0.1522380218497627
16.781827999999997,4.107876435516636,0.151953233987181
16.784208,4.117002995517185,0.1516097903416182
16.786603999999997,4.1319960881301245,0.1511079264555582
16.788992,4.147780576675983,0.1506031403489452
16.791371999999996,4.161423194848562,0.150175961035735
16.793768,4.180140949700616,0.1496159235578912
16.79616,4.202862906045502,0.1489535671560534
16.798539999999996,4.231311625375918,0.1481487246202449
16.800936,4.2621345325050894,0.1473135727413888
16.803323999999996,4.294959540380677,0.1464163688149013
16.805707999999996,4.329507109748961,0.1455119564422505
16.808104,4.367686793557741,0.1444860922810859
16.810491999999996,4.399208548821213,0.1436180908892642
16.812875999999996,4.428448664084548,0.1428336899169964
16.815272,4.452893181922131,0.1421686006143263
16.817659999999997,4.478967713453793,0.1414290831345941
16.889339999999997,4.547348837193106,0.1410335370391071
16.89172,4.554099313537032,0.1409487330034116
16.89412,4.571372150292239,0.1406430566849552
16.896504,4.590786857420724,0.1402815727535257
16.898888,4.608199463802792,0.1399711215478417
16.901283999999997,4.628824875744775,0.1395731067133894
16.903672,4.6503814532465375,0.1391545267943843
16.906056,4.671798261121439,0.1387530499379192
16.908451999999997,4.6911204204513055,0.1383511041982968
16.910835999999996,4.713515615714228,0.1378776784535729
16.913235999999998,4.736562437283209,0.1374075660498218
16.915632000000002,4.762682294785245,0.1368609242938315
16.91802,4.7877784389288855,0.1362832947024029
16.9204,4.813293891953108,0.1356727755693178
16.922795999999998,4.83759864016383,0.1351055275490943
16.925184,4.863253862814911,0.1344861470593556
16.927563999999997,4.893192826212547,0.1337594262998313
16.929968000000002,4.920897371438289,0.1330467462735624
16.932352,4.947251442223672,0.1323974114507902
16.934731999999997,4.97709785782269,0.1316555189031083
16.937136000000002,5.00000680562268,0.1310671716380601
16.939524,5.017887838571439,0.1305356717654783
16.941904,5.030880726295831,0.1300517375692002
16.944308,5.041359656594608,0.1295954548494064
16.946692,5.052769752453163,0.1291259243756999
16.949072,5.062177747565304,0.1286979324901038
16.951468,5.068140619692049,0.1283055863444525
16.953856000000002,5.07266046957982,0.1279141963122068
16.95624,5.081556608012762,0.1274732798957146
16.958636,5.089381811259064,0.1270612670667726
16.961024000000002,5.09576399226639,0.1266460185418141
16.963403999999997,5.101354777340799,0.1262367275783568
16.9658,5.109319750213961,0.1258169590249388
16.968192000000002,5.119426593460401,0.1253523247063299
16.970571999999997,5.131954846333838,0.1248231351201339
16.972975999999996,5.145414264767052,0.1242829631659357
16.975364,5.153938316147656,0.1238340343089035
16.977744,5.160460266781843,0.1234212514758688
16.980143999999996,5.160743597751302,0.1230825622614356
16.982528000000002,5.15488085685465,0.1228662471166384
17.051823999999996,5.050843486021518,0.1226723188280974
17.054212,5.064669303933464,0.1226444912352476
17.058991999999996,5.09008652158546,0.1225917249709918
17.06138,5.10195746057923,0.122544990150065
17.063760000000002,5.118763766625613,0.1224138454962428
17.066159999999996,5.137711943045275,0.1222339375284025
17.068543999999996,5.160152464278573,0.1219645971143029
17.070928000000002,5.182872524765589,0.1216776364074228
17.073324,5.212669822678496,0.1212667192749122
17.075716,5.236088731299814,0.1209369749876677
17.078096000000002,5.255782977682019,0.1206596642997311
17.080495999999997,5.27924910813158,0.1202669195265062
17.082879999999996,5.305928044141058,0.1198102265777405
17.085259999999998,5.333538145710314,0.1193420330160374
17.087663999999997,5.367294319145678,0.118767786818675
17.090052,5.394532333662596,0.1182871589848542
17.092432000000002,5.414972650007345,0.1179168671797638
17.094828,5.432339930419039,0.1176074019629019
17.097215999999996,5.449707210830733,0.1173041499041708
17.099596,5.469728218294903,0.1169759639515942
17.101999999999997,5.490168534639652,0.1166245832857511
17.104383999999996,5.511679786171039,0.1162611540499117
17.106764,5.540780131807514,0.11579961066437
17.109164,5.570020247070849,0.115333526337591
17.111548,5.597817340095206,0.1148698129260525
17.113932,5.627104677186783,0.1143620463170939
17.116335999999997,5.656764101330698,0.1138841188691308
17.118719999999996,5.687214921407532,0.1134088703215453
17.121103999999995,5.711287352192777,0.1130072127642327
17.1235,5.742157481150192,0.1125179634541762
17.125884,5.778242516413938,0.1119482916123943
17.128268,5.819402688357157,0.1113104244186051
17.130663999999996,5.857629593994181,0.110718318716304
17.133052,5.896275808511785,0.1101061324253258
17.135432,5.927612468178023,0.1095724090612499
17.137828,5.96015983265776,0.1090093663065023
17.140216000000002,5.997922103443828,0.108367342152707
17.1426,6.0375939271776975,0.1076659240600006
17.144996,6.070747591993118,0.1070305883466855
17.147384000000002,6.099245429009646,0.1064410975702879
17.14978,6.122807898973564,0.1059151188922542
17.152175999999997,6.139852210019033,0.1054573820966949
17.154564,6.151029988452112,0.1050739522060431
17.156948,6.16220776688519,0.1046930168094818
17.159343999999997,6.173106006064548,0.1043307948778296
17.161732,6.182933310057267,0.1039873902608893
17.164111999999996,6.189315491064593,0.1036632321345511
17.166516,6.191181613899888,0.1033748438953684
17.168903999999998,6.192628427854603,0.1031101251521238
17.171287999999997,6.1914215147568425,0.1028658870548766
17.173684,6.181694341994218,0.1027069794459764
17.176071999999998,6.167683428485039,0.1026137173948128
17.178452,6.15381228460272,0.1025120351885643
17.180852,6.137007874414204,0.1024426319382486
17.183239999999998,6.123648587211083,0.1023550313819064
17.18562,6.11094092631402,0.1022747215064616
17.192783999999996,6.065738810339069,0.1022505807218749
17.19518,6.059362316905351,0.1021666512451449
17.197567999999997,6.056710485710745,0.1020502786372634
17.199951999999996,6.058434943061311,0.1019090312018715
17.202348,6.065886163397407,0.1017123000357219
17.204735999999997,6.07412877966642,0.1015170149389754
17.207116,6.078367194442601,0.1013684092256446
17.209511999999997,6.085119566644394,0.1012127220896897
17.211903999999997,6.094385896271804,0.1010485807556531
17.214284,6.107237118511467,0.1008599318857181
17.216679999999997,6.121159275937766,0.1006552821642082
17.219068,6.133591189296848,0.1004906111661726
17.221452,6.154915449373132,0.1002706189592636
17.223847999999997,6.177031105382335,0.1000508054676226
17.226236,6.200729553257373,0.099832725593924
17.228616000000002,6.226662419304306,0.0996215524175104
17.231015999999997,6.250732954231683,0.0994279367903322
17.233404,6.276526050651754,0.0992273922717276
17.235784000000002,6.296732153713158,0.0990722631035785
17.238183999999997,6.316146860841643,0.0989164215605196
17.240572,6.339565769462961,0.0987157018166047
17.242952000000002,6.357909541404809,0.0985797048810566
17.245348,6.379466118906569,0.0984015610848943
17.247735999999996,6.401162466035191,0.0982182367649924
17.250132,6.417132050178283,0.0980873593446011
17.252527999999998,6.4290974328285415,0.098000492316977
17.254916,6.449071218464466,0.0978270640644012
17.257295999999997,6.4643891763015,0.0976900338125417
17.259695999999998,6.481197378205753,0.0975178555587463
17.262084,6.501078616043061,0.0973126872891284
17.264463999999997,6.523893120186564,0.0970818729517985
17.26686,6.550199969143703,0.0967970277212399
17.269247999999997,6.571059594369034,0.0965477526338572
17.271628,6.591547132542026,0.0962775773352772
17.274028,6.608449778102764,0.096027213037235
17.276415999999998,6.625771732544084,0.0957561987010918
17.278796,6.643233456612265,0.0954787705269805
17.281196,6.65832099288169,0.0952005148787615
17.283583999999998,6.6812771625099225,0.0948490940781647
17.285964,6.705304267324794,0.0944835631161531
17.288359999999997,6.725327170646833,0.0941604499595389
17.290748,6.744558678035952,0.0938363749628819
17.293127999999996,6.757923652812682,0.09356735298777
17.295524,6.767703734977157,0.0933173882155793
17.297911999999997,6.775621486022077,0.0930777238170709
17.300308,6.784889711507356,0.0928089471901777
17.302704,6.785358138074049,0.0926207575191344
17.305092000000002,6.78810820464088,0.0923977773991463
17.307471999999997,6.786854069714876,0.0922150698665936
17.309872,6.776288279191089,0.0920960697326769
17.312260000000002,6.761997826428189,0.092002159020104
17.314644,6.741421532172319,0.0919811755877305
17.317043999999996,6.72033338123725,0.0919449551499026
17.319432,6.698174295115543,0.0919211990087271
17.321812,6.678808705673172,0.0918783240170059
17.324211999999996,6.656789389178325,0.0918466087684729
17.326596000000002,6.636632403803034,0.0918012919835164
17.328975999999997,6.617406583987521,0.0917491230373422
17.331379999999996,6.593105627492537,0.0917475833384782
17.333768,6.570015375811052,0.0917247099174528
17.336148,6.550137929689482,0.0916620291665658
17.338552,6.531471188381411,0.0915786991588174
17.340939999999996,6.516529109312453,0.0914714150971001
17.34332,6.501307490989776,0.0913778840235958
17.345715999999996,6.494885671585682,0.0912098192058065
17.348104,6.490977809607204,0.0910383172372641
17.350484,6.492656940987396,0.0908310640099805
17.35288,6.494847929046785,0.0906394834700095
17.355268000000002,6.501694744905067,0.090419279115382
17.357647999999998,6.519575777853827,0.0901369901181247
17.360044000000002,6.537828897854926,0.0898763507931022
17.362436000000002,6.560086219348857,0.0895772170860865
17.364815999999998,6.585928433455042,0.0892633772536472
17.367212000000002,6.613213669800203,0.0889593278865519
17.3696,6.639707510212446,0.0886557401318118
17.371983999999998,6.671788343983359,0.0883207349206975
17.374380000000002,6.700516602567495,0.0880312778351719
17.376768,6.732178127457827,0.0877219204177178
17.379148,6.761977321228604,0.0874210393618088
17.381548000000002,6.791357206118797,0.0871433534325227
17.383932,6.818455451008855,0.0868996286087741
17.386316,6.8469967181378895,0.0866677086000263
17.38872,6.872604718960727,0.0864596991575141
17.391104,6.901145986089761,0.0862284520219633
17.393484,6.923960490233265,0.0860395335512399
17.39588,6.943329871391375,0.0858586060326183
17.398268,6.962187395870289,0.0856644933206646
17.400652,6.981464229229782,0.0854517162846719
17.403048,6.996364774044104,0.0852522436254703
17.405436,7.003955764007061,0.0850879899186372
17.407815999999997,7.0102435013579,0.0849065442310817
17.410220000000002,7.016019382029543,0.0847108990706978
17.412604,7.01979316195477,0.0845325060262121
17.414983999999997,7.023055085200797,0.0843395184304499
17.417384,7.02925027475302,0.0841268550273574
17.419767999999998,7.031720802066129,0.0839345990781196
17.422151999999997,7.03610088232704,0.0836920520767229
17.424548,7.0344746603487,0.0834970598467755
17.426932,7.036992409490051,0.0832636061276568
17.429327999999998,7.036204805272872,0.0830286443994226
17.431723999999996,7.0358365099362725,0.0827742643834156
17.434112,7.030952156427642,0.0825360512116235
17.436492,7.026626881426452,0.0822711658027109
17.438888,7.023652080865621,0.0819833578576628
17.441276000000002,7.02053751067793,0.0817014111835453
17.44366,7.020356206796434,0.081399381101688
17.446064,7.018172802168522,0.0811129448911315
17.448451999999996,7.013987296794193,0.0808418831181504
17.450832,7.012315748845478,0.0805704786328081
17.453235999999997,7.012366762389459,0.0802963048957992
17.455619999999996,7.016421977426276,0.0799924201948102
17.458004000000003,7.020989049142289,0.079704553029645
17.4604,7.0279775304853,0.0793841615210607
17.462787999999996,7.037107882201587,0.0790445503255821
17.465168,7.039021226865126,0.0787649974451826
17.467563999999996,7.040003405968886,0.0784893956708233
17.469952,7.041357672124983,0.0782359867718639
17.472336,7.044853808654359,0.0779605630845332
17.474731999999996,7.048210175556872,0.0776926872269683
17.47712,7.055011665444779,0.0774214545701203
17.4795,7.0615336160789655,0.0771633916529265
17.481899999999996,7.0719199985791255,0.0768830209954595
17.484284000000002,7.081747302571845,0.076627897133458
17.486668,7.08715109619115,0.0764203624773381
17.489067999999996,7.093346285743373,0.0762151551766262
17.491452000000002,7.098191000855238,0.0760334046743733
17.493831999999998,7.104758277459799,0.0758507076519741
17.496228000000002,7.112908345930196,0.0756733894598284
17.498616,7.119196083281036,0.0755037504288178
17.501011999999996,7.1244128854452375,0.0753440209701587
17.503411999999997,7.127208277982441,0.0752176926371687
17.5058,7.126930634586589,0.0751148796746352
17.510576,7.111195263726845,0.0750957773547602
17.512963999999997,7.108728528129473,0.0750534618985977
17.515347999999996,7.109846685144354,0.0750030902238672
17.517744,7.109754137345738,0.0749689553738636
17.520128,7.113526021413093,0.0749145710868298
17.522512,7.121162337346425,0.0748410187155771
17.524907999999996,7.131592149959089,0.0747581633332759
17.527296,7.143884293691309,0.0746691483926019
17.529676000000002,7.15803876854309,0.0745747442818643
17.532072,7.175126509701063,0.0744648156718696
17.534459999999996,7.193285186045674,0.0743446787526863
17.536839999999998,7.214796437577062,0.074191954719712
17.539236000000002,7.238449559481727,0.0740217066255804
17.541624,7.262242451013252,0.0738467449769309
17.544007999999998,7.284312781052081,0.0736723067366151
17.546403999999995,7.311318478143521,0.0734721429613103
17.548792,7.343539081541293,0.0732349470713187
17.551172,7.375899454565927,0.072992092056967
17.553571999999996,7.410401697963838,0.0727302553458056
17.55596,7.446533955055827,0.0724317576250816
17.558355999999996,7.48681018326751,0.0721048986941051
17.560752,7.526434785173135,0.0717743355252697
17.563139999999997,7.560332624093232,0.0714681876763372
17.565523999999996,7.592787440774352,0.0711494722818947
17.56792,7.621098286335777,0.0708624654166867
17.570307999999997,7.637536297045561,0.0706400913423172
17.572688,7.649318479956454,0.0704336657092142
17.575083999999997,7.656584604695315,0.0702358971769123
17.577475999999997,7.659055132008426,0.0700588835351608
17.579856,7.660874033015478,0.0698738465494974
17.582251999999997,7.665905739582446,0.0696633148117294
17.58464,7.667724640589498,0.0694796018886023
17.587024,7.666750044917215,0.0693043492639741
17.589419999999997,7.661771247752098,0.06915103888742
17.591808,7.65786338577362,0.0689890596363808
17.594187999999995,7.650230861556028,0.0688381646029089
17.596584,7.635521099912548,0.068728152141983
17.598971999999996,7.6218822734557055,0.0686096956766786
17.601352,7.608522986252584,0.0684794572534258
17.603752,7.602520475729072,0.0682979318483449
17.606136,7.590511662966309,0.0681477661438914
17.60852,7.57636097983027,0.0680135064075267
17.610915999999996,7.568216598933481,0.0678481768619671
17.613304,7.565007585089304,0.0676602533978956
17.615699999999997,7.562869506431767,0.0674642217000234
17.618096,7.572883801879587,0.0672011564891416
17.620483999999998,7.584108802140911,0.0669246944871192
17.622867999999997,7.602131500574401,0.0666227447003697
17.625264,7.624158400500725,0.0663015864793524
17.627651999999998,7.643112264493991,0.065998558453414
17.630032,7.662066128487261,0.0656983380532161
17.632432,7.678226495801193,0.0654035257289378
17.634819999999998,7.695318028674906,0.0651069327288088
17.637203999999997,7.715482597481673,0.0647920571696911
17.639604,7.737789036661717,0.0644640496584035
17.641992000000002,7.758884771028263,0.0641496420365942
17.644371999999997,7.784264246141363,0.0638049121693583
17.646768,7.807781390134905,0.0634650709598907
17.649152,7.832089930061367,0.0631305098729717
17.651536,7.851695420360693,0.0628462359223521
17.653931999999998,7.876515816966352,0.0625312467368451
17.65632,7.8971922424523155,0.0622386401935548
17.658699999999996,7.910931200139252,0.0619754111109692
17.661104,7.922668057079771,0.0617235120649245
17.663488,7.938688654766844,0.0614451728813566
17.665872,7.951496446894002,0.0611914328547963
17.668267999999998,7.963093534207662,0.0609502522303949
17.670656,7.969475715214989,0.0607395772374379
17.673035999999996,7.972645090662399,0.0605499648696798
17.675432,7.976605862042729,0.0603635840833268
17.677824,7.97963546786328,0.060179690043861
17.680203999999996,7.986389735922943,0.0599896510094955
17.682603999999998,7.993795630288665,0.0598092401171591
17.684992,8.001061755027527,0.0596344039973194
17.687371999999996,8.005906470139394,0.0594843281185697
17.689768,8.014615617117231,0.0593240613520084
17.69216,8.023976390401124,0.0591741145382148
17.694539999999996,8.037992991483911,0.0590186749704327
17.696936,8.051869822939837,0.0588692067718413
17.699323999999997,8.063884323276207,0.0587222507622738
17.701707999999996,8.071475313239164,0.0586066145746393
17.704104,8.08507260544137,0.0584676722717205
17.706491999999997,8.105607365442607,0.0583046386121586
17.708872,8.123720715816845,0.0581652487309433
17.711267999999997,8.13554822469811,0.0580599736606939
17.713656,8.142300596899908,0.0579760981567766
17.716051999999998,8.15119483947498,0.0578797771649828
17.718448000000002,8.162230952423329,0.0577709559479049
17.720836,8.176619640558451,0.0576385919641891
17.723216,8.196223234999911,0.057481186133689
17.725616000000002,8.215826829441367,0.0573250856498818
17.728004,8.240645330189157,0.0571459932941563
17.730384,8.267093844631027,0.0569422395296059
17.732779999999998,8.293821898326614,0.0567291564446943
17.735168,8.322040196089423,0.0564960524435195
17.737552,8.343600565306923,0.0562745721469399
17.739948,8.362367437845087,0.0560566194600961
17.742336,8.375687086651443,0.0558398961283328
17.744715999999997,8.387423943591962,0.0556152452886674
17.747120000000002,8.40093058385342,0.0553602414744148
17.749508,8.419000504115154,0.0550727869579524
17.751891999999998,8.434556466951273,0.0547788049300406
17.754288000000003,8.448389868294695,0.0544835531002444
17.756676,8.463713513705336,0.0541677967541819
17.759056,8.480247863929476,0.0538406736392902
17.761452,8.500274558967254,0.0534860950799244
17.763840000000002,8.51923031881839,0.0531383843985618
