Time,Force,Position
19.478488,2.58835998663323,0.1851994658955714
19.480876,2.732422309673876,0.1833997779076714
19.483252,2.8709939788702084,0.1813710985292539
19.485652,3.003143828662448,0.1789394657312193
19.48804,3.1182097290124524,0.1771188155934827
19.49042,3.2172626151068613,0.1756992286643549
19.492816,3.3069604154909817,0.1743289073541155
19.4952,3.3846021812840963,0.1732639204556183
19.497584,3.4512116258446017,0.1725043048984096
19.499988,3.5049264180529387,0.1720726106361952
19.53582,3.5509557766418345,0.1720130483450106
19.538208,3.5618030022772107,0.1717564978869268
19.540604,3.5756760420173994,0.1714604241861062
19.543,3.592482348063782,0.1710591619487865
19.545388,3.608357488550388,0.1706810389681452
19.547768,3.627165895343188,0.1701871041923647
19.550164,3.649838734001962,0.1695604744698432
19.552552,3.667715975234985,0.1691023077414984
19.554932,3.688154395721865,0.1685108227053567
19.557332,3.709803521022243,0.1678652255845228
19.559716,3.728891467068765,0.1673680327172214
19.5621,3.7485838175931,0.1669556567708199
19.564496,3.7723729174088874,0.1664627156573473
19.566884,3.7941126946500128,0.1661208858596407
19.569264,3.822230861182728,0.1655992438173808
19.571667999999995,3.852071589208138,0.1650352958761119
19.574056,3.883075800218805,0.1644919106496537
19.576436,3.914871407162389,0.1639325039868916
19.578832,3.941359560001025,0.1635132337592235
19.58122,3.967103538734984,0.163039072198005
19.5836,3.990752868923911,0.1625921297583807
19.586,4.010305449821386,0.1622339791821093
19.588384,4.024690346240773,0.161993680821621
19.59078,4.036421515607684,0.1618214356309976
19.59318,4.053647130534649,0.1614359124870484
19.595564,4.073945781394668,0.1609531509216087
19.597948,4.090752087441052,0.16062145300279
19.600344,4.1099325812861895,0.1602457979976878
19.602732,4.12655189587747,0.1599965109561397
19.605112,4.140098174535695,0.1598526971696479
19.607508,4.15378422282078,0.1596948351878675
19.609896,4.169240054426805,0.1594345746407431
19.612276,4.185394734167131,0.1591178718157173
19.614676,4.202667570922338,0.1586922755540112
19.617064,4.212630852826178,0.1584515234797567
19.619444,4.222501586931402,0.1581585446009802
19.62184,4.235352809171065,0.157721463017424
19.624228,4.250206132157144,0.1572287865552727
19.626612,4.265850851076142,0.1567154092087505
19.629008,4.282286965928058,0.156199535448505
19.631396,4.297791915220195,0.1557139473503714
19.63378,4.316881757124586,0.1551587659138655
19.636184,4.341418822760786,0.15448139152987
19.638572,4.370611716195877,0.1537021885988551
19.640952,4.395520868884414,0.1530752324833857
19.643356,4.416565589706978,0.1525557975441601
19.64574,4.441661733850619,0.1518691654938988
19.648124,4.47439419392759,0.1509609477180739
19.65052,4.509687833258418,0.1499591705634038
19.652908,4.547542651843104,0.1488571657313725
19.655288,4.583442591509616,0.1477434324541096
19.729364,4.402139333651444,0.1475590485199175
19.731752,4.4072597963012905,0.1475428942841104
19.734131999999995,4.418758648242726,0.1474039677976829
19.736528,4.434214479848749,0.1472284220936104
19.738916,4.455117535186584,0.146953260017315
19.741296,4.480536648696448,0.1465872284944227
19.743692,4.508469719631929,0.1461773263178412
19.74608,4.543340258366438,0.1455872779512056
19.748476,4.579281732287587,0.1449725343262421
19.750872,4.6124297095294,0.1444247455710203
19.75326,4.64171325490524,0.1439701374802243
19.75564,4.672207505094577,0.1434731487647219
19.758036,4.707776891963387,0.1428511086976767
19.760424,4.7416237173395,0.1422548230140902
19.762804,4.773980298648395,0.1417267499105595
19.765208,4.812994808502599,0.1410603643530264
19.767596,4.848656743170026,0.140502767082666
19.769976,4.880966102650678,0.1400580559050758
19.772372,4.91327546213133,0.1396216536772858
19.77476,4.949356705679337,0.1390605865218225
19.777144,4.979990725495536,0.1386027942129521
19.77954,5.006108687139704,0.1382325365397523
19.781928,5.0309233961717545,0.1378593469645318
19.784308,5.051920895166075,0.1375073050425785
19.786704,5.069752810428723,0.1371860907541342
19.789092,5.09014590494523,0.1367853245380417
19.791472,5.1132399483424535,0.1362926119239
19.793872,5.135822135060479,0.1357944973746102
19.796256,5.155750594726031,0.1353351200004129
19.79864,5.1758188240184415,0.1348660003944287
19.801036,5.198028923684131,0.1343451643455533
19.803424,5.220099253722959,0.1338371812517652
19.805816,5.235511655216479,0.1334493696664988
19.808216,5.250784287083139,0.1330690686545612
19.810604,5.267547163017018,0.1326335848734755
19.812984,5.2810046855923645,0.1322370699174603
19.81538,5.295161056302012,0.1317898569146965
19.817768,5.3098765055191,0.1313049373287231
19.820152,5.3191447310043785,0.1308981461893739
19.822556,5.325200150929741,0.1305699007345629
19.82494,5.333257671601522,0.130202412650216
19.82732,5.338381925967106,0.1298882293737154
19.829716,5.343366410705831,0.1295858971045883
19.832104,5.349654148056671,0.129292980617529
19.834484,5.353240936526793,0.129088512584283
19.83688,5.354406315369919,0.1289546876620459
19.839268,5.354221219772684,0.1288655464441851
19.841648,5.352685649735091,0.128820189107308
19.844044,5.350079144510859,0.128798694487784
19.846432,5.3493349704061846,0.1287489232023022
19.848828,5.3496617314881485,0.1286758303986414
19.851228,5.35133896701047,0.1285606786827006
19.853615999999995,5.357951569585405,0.1283576472879604
19.855996,5.365914646600698,0.1281116515970721
19.858392,5.370664918056077,0.1279354565360393
19.86078,5.374856111004014,0.1277987163455026
19.86316,5.379559160631149,0.1276775508976281
19.865556,5.383842901377703,0.1275856996657035
19.867944,5.39743829772204,0.1273612923165851
19.870328,5.411545550745576,0.127152375655508
19.872724,5.42523349488853,0.1269728362335111
19.875108,5.442506331643736,0.126748675401092
19.877492,5.458848002839166,0.1265392426816078
19.879888,5.480125041087207,0.1262497699483518
19.882276,5.502473014521886,0.1259333883109183
19.884656,5.522958656837009,0.1256426026108343
19.887052,5.542233594338634,0.1253839929336472
19.88944,5.5593666614669806,0.1251699489400219
19.891836,5.58101578676736,0.1248994665714743
19.894232,5.6003832720676,0.1246849387992279
19.89662,5.617329347740845,0.1245354774991397
19.899,5.631062617854173,0.1244538722789917
19.901399999999995,5.645307744646699,0.1243895643245067
19.903784,5.6609958936782006,0.1243284748651467
19.906164,5.681619409762314,0.124186396632134
19.908564,5.699169889913374,0.1240987411526719
19.910952,5.717931074877932,0.1239818395254448
19.913332,5.733107367230237,0.1239051092591347
19.915732,5.743627831783649,0.1238940420527657
19.91812,5.754707374844504,0.1238475430439412
19.9205,5.766345996412797,0.123765883902746
19.9229,5.776821134995837,0.1236649082942209
19.925284,5.787808130258073,0.1235787007769968
19.927664,5.796141398467833,0.123522186957225
19.930072,5.80861863779729,0.1233933575236226
19.932456,5.825379617873298,0.1231847005737977
19.934836,5.845632942762944,0.1229006360132479
19.937236,5.8700302387722845,0.1225462158028396
19.93962,5.891122181423092,0.1222140231281028
19.942004,5.908769001088506,0.1219061802909329
19.9444,5.927906064821138,0.1215531436189864
19.946788,5.94839360299413,0.1211620798030508
19.949168,5.964644622248811,0.1208038926260501
19.951564,5.981454720010934,0.1204156205189111
19.953952,5.9956110907205815,0.1200559957662261
19.956348,6.013539345497586,0.1196028602032999
19.958744,6.028534333968394,0.1191929280694139
19.961132,6.049535624678454,0.1186920842650896
19.963512,6.067603649082317,0.1182322618021238
19.965908,6.08073630643357,0.1178427979875325
19.968296,6.098012934904515,0.1173917596763181
19.970676,6.113007923375324,0.1169867126710159
19.973076,6.127770594420655,0.1165516780897612
19.975464,6.137877437667094,0.1161707710588355
19.977844,6.1462617194208375,0.1158068271433802
19.980244,6.150641799681748,0.115503268867882
19.982631999999995,6.151157448076685,0.1152507215201217
19.985012,6.14636564236667,0.1150432747689671
19.987412,6.1443673333359925,0.1148056500460021
19.989796,6.15144836247762,0.1144376278941678
19.99218,6.1546649597532745,0.1141171147805217
19.994576,6.158021326655788,0.1137890422829857
19.996964,6.162029319864361,0.1134658679100632
19.999344,6.162964277139877,0.1131898479205206
20.001744,6.16683250072159,0.1128780912492162
20.004128,6.17056095467644,0.1125762601546592
20.006512,6.175500113444791,0.1122484623494524
20.008912,6.176435070720308,0.1119763395952357
20.0113,6.178580732809324,0.1116774848844579
20.01368,6.184730596391173,0.1113221290784255
20.061488,5.914826840727202,0.1112182960374384
20.063872,5.909566608450495,0.1112112895281713
20.066268,5.909893369532458,0.1111475242645222
20.068656,5.908869656174062,0.1111174657286737
20.07104,5.914643640987836,0.1110062371581095
20.073436,5.927075554346916,0.1108224606752887
20.075824,5.941090259571835,0.1106353111291796
20.078204,5.96325313740928,0.1103316264493964
20.080604,5.98955998636642,0.1099682284902016
20.082992,6.019451727935812,0.1095760281473705
20.085376,6.0522767358114,0.1091470170127923
20.087772,6.082028707753932,0.1087664530685709
20.090156,6.107916247830492,0.1084331126247744
20.09254,6.131010291227716,0.1081287668208214
20.094936,6.154383873878659,0.1078091432200532
20.097324,6.18055095320894,0.1074614054090584
20.099704,6.208720133285637,0.1070878804480984
20.102104,6.23875164448189,0.1066971161183576
20.104492,6.274789457917392,0.1062343457660848
20.106872,6.30896494023334,0.1057951568521488
20.109272,6.343559731429867,0.1053351553616215
20.111656,6.372287990014003,0.1049461480506775
20.11404,6.394358320052832,0.1046287042232463
20.116436,6.420712390838214,0.1042488076640516
20.118824,6.438685971585592,0.1039459881436397
20.121204,6.453074659720716,0.1036719483513841
20.1236,6.4700245271096986,0.103345468079056
20.125988,6.484832524125404,0.1030538641407044
20.128368,6.496847024461776,0.1027885886863666
20.130768,6.509280833678726,0.1025036947329646
20.133156,6.521854412522537,0.1022131122072905
20.135536,6.535638696179847,0.1019011273666422
20.137936,6.549562749464017,0.1015807547199756
20.14032,6.565488903494604,0.101238445280977
20.142704,6.584348323831386,0.1008695711115467
20.1451,6.6006937867425535,0.1005083168643648
20.147488,6.619320889653859,0.1001145615378452
20.149884,6.637156596632247,0.0997224582679691
20.15228,6.648194605438465,0.0993983588641242
20.154668,6.657510052751985,0.0990818860147215
20.157052,6.6658943345057295,0.0987736838069186
20.159448,6.676420486632749,0.0984361961297845
20.161836,6.6917422361855206,0.0980574809635381
20.16422,6.703059784245459,0.0977232034026306
20.166616,6.721966426410485,0.097326978694444
20.169008,6.74059352932179,0.0969455846526832
20.171392,6.757870157792737,0.0965957525725562
20.173788,6.775286555890543,0.0962409345615316
20.176176,6.793354580294406,0.0958946721124059
20.17856,6.807418403205436,0.0955900088073237
20.180956,6.820551060556689,0.0952932920582324
20.183344,6.832612782721302,0.0950111800073392
20.185728,6.846536836005474,0.0947164515830785
20.188124,6.861252285222561,0.0944244466855203
20.190512,6.872615159252874,0.0941810096855934
20.192896,6.888494091455218,0.0939139596745664
20.195292,6.901672074776842,0.0937026824707575
20.19768,6.914570518844749,0.0935053892767082
20.200064,6.93026245959199,0.0932895503804329
20.20246,6.946606026645288,0.0930811762397016
20.204848,6.963601220004644,0.092881136015328
20.207232,6.983250140416475,0.0926715891952779
20.209628,6.995821823402417,0.0925311669910545
20.212016,7.010116067881055,0.0923855841465884
20.2144,7.018404010120443,0.0922970849372847
20.216796,7.029764988292886,0.0921781070323912
20.219184,7.037913160905414,0.0920968155464806
20.221564,7.045502255010501,0.0920427292084946
20.223964,7.05243972280953,0.0919814372896963
20.226352,7.062962083220811,0.0919034048462991
20.228736,7.074927465871069,0.0918342103682991
20.231132,7.087544474827385,0.0917727093934166
20.23352,7.099090548597062,0.0917239726592964
20.2359,7.10970545680696,0.0916816752527852
20.238299999999995,7.118737573151023,0.091637347465214
20.240688,7.124045027255972,0.0916163093688878
20.243068,7.128700855054863,0.0915877401129229
20.245467999999995,7.1361501795330895,0.0915423832174385
20.247856,7.14131786401118,0.0915280426109566
20.250236,7.148487649235687,0.0914960341058878
20.252632,7.156868139273692,0.091445836778514
20.25502,7.164317463751918,0.0914019406757812
20.257404,7.178052629723116,0.0912923978672823
20.2598,7.192067334948034,0.0911707024021705
20.262188,7.211296946479285,0.0909965688627951
20.264568,7.22759329170434,0.0908466670247349
20.266968,7.250035708795506,0.0906397140370966
20.269356,7.275318844394251,0.0903800965689872
20.271736,7.299391275179495,0.0901385057022031
20.274136,7.321601374845184,0.0899083512528015
20.27652,7.341157747458398,0.0896877722287786
20.278904,7.359410867459496,0.089452712930335
20.2813,7.379945627460732,0.0891898590673198
20.283688,7.401551322648606,0.0889177158977874
20.286072,7.428092384889092,0.0886091880688647
20.288468,7.4584978789955505,0.0882763290374192
20.290856,7.485318480489759,0.0879552565916923
20.29324,7.511627225304767,0.0876242449577754
20.295636,7.54170785418713,0.0872364309178844
20.298024,7.570065921576799,0.0868545244155524
20.300408,7.594559557100495,0.0864991218147512
20.302804,7.615468300011938,0.0861576453877375
20.305192,7.637168438856299,0.0858214753363573
20.307572,7.65793741214088,0.0854914691233845
20.309972,7.674981723186348,0.0851822629923517
20.31236,7.688301371992704,0.0848899869913512
20.314744,7.69631356669411,0.0846146849651758
20.31714,7.696177588782989,0.0844055832465009
20.319528,7.700325351618422,0.0841551855623742
20.321908,7.705032192961294,0.0838810134778499
20.324304,7.711369047998247,0.0835724189031512
20.326692,7.717705903035199,0.0832636371772037
20.329076,7.726184628445428,0.0829377503204463
20.331484,7.732940792362962,0.0826158082751841
20.333872,7.738905560347578,0.0822949453845595
20.336256,7.740354270160161,0.0819892992580362
20.338652,7.749019987025494,0.0816265813245087
20.34104,7.753169645718795,0.0812781724095987
20.343424,7.752104398105764,0.080972747209917
20.345824,7.747174718626759,0.0806875245852086
20.348212,7.745457844707671,0.0803728321804472
20.350596,7.745743071534999,0.0800440264261073
20.352992,7.738578973884103,0.0797454636771071
20.355384,7.729552545113647,0.0794539143861483
20.357764,7.719315411529692,0.0791769902660812
20.360164,7.710800839438435,0.0788965049981343
20.362552,7.702937893653235,0.0786230700485499
20.364932,7.700941480480426,0.078313179194113
20.367332,7.692938765068368,0.0780444473851541
20.36972,7.686518841522143,0.0777805377937419
20.372104,7.677677508348923,0.0775472838570932
20.3745,7.671489902228176,0.0773089718728693
20.376888,7.656222957935123,0.0771329561110321
20.379272,7.635880876962598,0.0769922557635606
20.381672,7.61125505524352,0.0768894271823359
20.38406,7.591145291696472,0.0767736290594876
20.386444,7.567403413708928,0.076703116157925
20.388844,7.544964788333501,0.0766485908761827
20.391232,7.527321760383826,0.0765700689580103
20.393616,7.518478531352736,0.0764419870803833
20.396012,7.507353662321509,0.0763382004666485
20.3984,7.4958094844097,0.076251841123118
20.400784,7.4917146309761184,0.0761378826476277
20.40318,7.492415374968289,0.0760013587858286
20.405567999999995,7.495909615639794,0.0758546813273484
20.407952,7.502616661871215,0.0756803593770241
20.410348,7.508764629595197,0.0755290903799876
20.41274,7.514912597319177,0.075378545255948
20.41512,7.525064766535991,0.0752029801826413
20.417516,7.529350403140413,0.0750586192756376
20.419908,7.541225133849924,0.0748834859578276
20.422288,7.55002682862638,0.0747301640163023
20.424688,7.565346682321283,0.0745534962619798
20.42708,7.588535169374993,0.0743332093013904
20.429464,7.61372575717512,0.0741000140301051
20.431884,7.6339809779226355,0.073895564764317
20.434272,7.65437596829701,0.0736854434698705
20.436652,7.678914929791079,0.0734463321568657
20.439044,7.698518524232536,0.0732348531077018
20.441428,7.713186751621381,0.0730531842397343
20.443808,7.73064847568956,0.0728629051761708
20.446224,7.750531609384738,0.0726448100724137
20.448608,7.769343807893277,0.0724376428493719
20.450987999999995,7.784291574535842,0.0722493029430859
20.453404,7.800310276365045,0.0720537041724475
20.455788,7.818982705246725,0.071857533449705
20.458168,7.842358183755539,0.0716122140397929
20.460564,7.866664827824131,0.0713661138707867
20.462948,7.892694033385419,0.0711227661840781
20.465328,7.926591872305515,0.0708423202863662
20.46774,7.952900617120522,0.0705907833577871
20.470127999999995,7.98135123230881,0.0703235395633237
20.472508,8.005285789325063,0.0700635556620557
20.474924,8.028149411154681,0.0698144571702406
20.477308,8.051013032984295,0.0695657539401912
20.479688,8.078160395560465,0.0692861607368262
20.4821,8.103445427017078,0.0690111754905098
20.484484,8.123515552167358,0.0687710522305731
20.486864,8.151454310676447,0.0684964708128522
20.48926,8.180184465118453,0.0682259972111941
20.491644,8.207983454000681,0.0679595541697769
20.494024,8.23443196844255,0.067713800460857
20.49644,8.2600890869515,0.0674667038581207
20.498824,8.289191328445845,0.067222299467459
20.501204,8.31736240438041,0.066982097194243
20.503608,8.340737882889222,0.0667597916353607
20.505996,8.363694052517458,0.0665562601773173
20.508376,8.384787891026134,0.0663581550365575
20.510772,8.401086132109057,0.0661762477078339
20.513156,8.414451106885787,0.0660073140929757
20.515536,8.43074934796871,0.0658274033664331
20.51794,8.447978754611416,0.0656467660917531
20.520324,8.47014352830673,0.065446545681062
20.522704,8.48951480532271,0.0652529671384809
20.5251,8.512098887898604,0.0650400678511399
20.527484,8.530259460101085,0.0648604189372131
20.529884,8.552144694542681,0.0646737256325
20.532276,8.580315770477245,0.0644518780113595
20.534664,8.60289985305314,0.0642429903556513
20.537044,8.622830208576561,0.0640345347172059
20.539448,8.640386376301228,0.0638166570526997
20.541836,8.656219982533198,0.0635975764895669
20.544216,8.669399861712693,0.0633788738997252
20.546616,8.680485092347153,0.0631414848794521
20.549004,8.68984776148892,0.0629028372255769
20.551384,8.698558804324627,0.0626553512018092
20.55378,8.705407516040777,0.0624124606795993
20.556168,8.713327162943568,0.0621637684695973
20.558548,8.728324047272242,0.0618863720028358
20.560952,8.7437402404815,0.0615958237704518
20.56334,8.75836503775784,0.0613027989622299
20.56572,8.76819423760843,0.0610216862872702
20.568124,8.77709227189924,0.0607434616204112
20.570508,8.78706124137669,0.0604592115853637
20.572892,8.794096944547944,0.060185279819393
20.575288,8.804764762159694,0.0598786140377376
20.577672,8.81305839197269,0.0595620804049965
20.580052,8.815625258800155,0.059258837328403
20.582448,8.818983521560538,0.0589592067077145
20.584836,8.826485755440617,0.0586411688621711
20.587216,8.84036637861228,0.0583219032983104
20.58962,8.855317936970586,0.0579970825948155
20.592008,8.873202761635087,0.0576649526574985
20.594388,8.888666176672587,0.0573540030685575
20.596784,8.904920987643006,0.0570471287608373
20.599168,8.925040230479398,0.0567326437000035
20.601548,8.944787386263453,0.0564017785536042
20.603952,8.965745246861008,0.0560629875218287
20.60634,8.978834474099754,0.0557467094072169
20.608724,8.988710895778585,0.055447281911527
20.61112,8.996724986337862,0.0551493243226435
20.613504,9.010885148763249,0.0548288602589398
20.615884,9.024114145628856,0.0545101800899754
20.61828,9.038134538427382,0.0541963842496747
20.620668,9.050013060852631,0.0538929996498976
20.623048,9.05947017365088,0.053610039341497
20.625444,9.06999822163577,0.053322405160202
20.627832,9.082388600740218,0.0530336361322728
20.630212,9.097060619844802,0.0527313716043078
20.632608,9.10824029413575,0.0524544882597148
20.634996,9.110759939134972,0.0521917236391891
20.63738,9.10941515226822,0.0519345314544716
20.639776,9.105928495028191,0.0516875418803638
20.64216,9.104583708161442,0.0514301503352444
20.64454,9.107382892414384,0.0511588975273974
20.646956,9.107900436667192,0.0509027908863603
