Time,Force,Position
19.268856,2.7679881164936204,0.181993215808008
19.27124,2.9266714450948688,0.1790652452741467
19.27362,3.0747417613440877,0.1768867874971237
19.276016,3.2179730500550505,0.1744589526319961
19.278404,3.3502664611898885,0.1720689825935551
19.280784,3.469480124375325,0.1699798181400239
19.283192,3.577616140357779,0.1679305240231707
19.285576,3.677001475107759,0.1660437797700673
19.28796,3.766006114931186,0.1644918526532256
19.29036,3.8486814831491376,0.1628359168861232
19.292748,3.91720616823105,0.161377376608039
19.295128,3.973674818721957,0.1601317878571558
19.323804,3.9568231867051993,0.1599495098576105
19.3262,3.959244596332196,0.1598468351776992
19.328588,3.9660422945043647,0.1596502674170546
19.330968,3.977356050848565,0.1593461260383545
19.333364,3.988018180886707,0.1590385926189496
19.335748,3.996678210178432,0.1587906076941078
19.338132,4.00920267133613,0.1584374163294844
19.340536,4.026103421039,0.1579859236841034
19.34292,4.041421378876034,0.1575536029938876
19.3453,4.053433983354536,0.1571779214674399
19.3477,4.065865896713617,0.1567630195985245
19.350088,4.07694733563234,0.1564104078236083
19.352468,4.090914819029015,0.1560354871118253
19.354872,4.106837181343863,0.1556640526599259
19.35726,4.130348637763799,0.155070811292635
19.35964,4.14971612306404,0.1546257727772622
19.362044,4.172388961722814,0.1541250768162753
19.364432,4.197156448926622,0.1536342059118755
19.366812,4.219502526503432,0.1532531184122563
19.369208,4.243897926654903,0.1527419811472411
19.371596,4.261542850462448,0.1523579768888901
19.373976,4.2710868234857085,0.1521710531559795
19.376372,4.2806307965089685,0.1519884765886456
19.37876,4.2844480065466986,0.1519531985925212
19.38114,4.287101733599174,0.1518980896442684
19.383536,4.291385474345728,0.1517541121759204
19.385924,4.292735948786087,0.1516930616665128
19.388308,4.297159459159501,0.1515422034727611
19.390704,4.307030193264725,0.1512761413442419
19.393092,4.320625589609064,0.1509246829877404
19.395484,4.330868410766624,0.1506857319402166
19.397888,4.34539497267074,0.1503109977278512
19.400276,4.3642052753214085,0.149806950601366
19.402656,4.381712325359963,0.149291710134593
19.40506,4.394423777972766,0.1488984929570218
19.407444,4.410348036145483,0.1484048187272426
19.409824,4.426039976892723,0.1478799085487319
19.412228,4.438426564281432,0.147408139828825
19.414616,4.449090590177443,0.1469618227521056
19.53168,4.626669185796501,0.1469467778825075
19.534076,4.635748523968808,0.1467170466092033
19.536464,4.650322307701167,0.146323558078963
19.538848,4.661730507701853,0.1459632841241598
19.541244,4.669693584717146,0.1456548844684577
19.543632,4.675794330612884,0.1453858083363851
19.546012,4.678449953523227,0.1451698654564275
19.548408,4.686460252366763,0.1448080696509668
19.550796,4.697124278262776,0.1444025194184186
19.553176,4.715656937517594,0.1438132475892801
19.55558,4.7357723886382495,0.1432083555648467
19.557968,4.755608300505183,0.1426299896535623
19.560348,4.777725852372256,0.1419744398659441
19.562744,4.802497131291802,0.1412790044416342
19.565132,4.825917935770989,0.1406390953066366
19.567512,4.851480610623455,0.1399459361587199
19.569912,4.876251889543,0.13926278705283
19.572296,4.89315453510374,0.1387628037113901
19.57468,4.905121813611867,0.1383736774230491
19.577076,4.917228861746854,0.1379705662016481
19.57946,4.927333809135424,0.137614906276968
19.581844,4.938649461337493,0.1372315547880857
19.58424,4.946100681673588,0.1369306630373408
19.586624,4.954203528315743,0.1366347472163414
19.589024,4.967101972383648,0.1362452218462133
19.59142,4.984004617944387,0.1357736799427072
19.593808,5.000627724251406,0.1353207399794065
19.596188,5.0089628883190365,0.1350656841524604
19.598592,5.015156182013391,0.1348651467741008
19.60098,5.01692596533433,0.1347846724292953
19.60336,5.022327863095766,0.1345938635810587
19.605756,5.028149069737784,0.1343727935484807
19.60814,5.033271428245499,0.1342033821133184
19.610524,5.035600290073879,0.134082515636625
19.61292,5.03820869115598,0.133940658331591
19.615304,5.036533351491526,0.1339044470231526
19.617688,5.034718242200213,0.1338786999591573
19.620084,5.035836399215094,0.1337942605383057
19.622472,5.041470614402007,0.1336394998097499
19.624852,5.053111131828171,0.1333606061323964
19.627248,5.066613980373891,0.1330499967738266
19.629636,5.069966555560668,0.1329608322784734
19.632016,5.075833088173058,0.1328459560749209
19.634416,5.081280311904867,0.1327622249256046
19.6392,5.0839340389573415,0.1327263498724522
19.641596,5.0871468445172585,0.1326507963452692
19.643984,5.095574556383507,0.132457669210926
19.646364,5.10749461306339,0.1321695231805561
19.64876,5.12304678418377,0.1317759587104313
19.651148,5.135386149744235,0.131464327522954
19.653528,5.149587846424256,0.131128824882462
19.655928,5.171146319783887,0.1306411795361145
19.658316,5.1954982898228526,0.130113892676188
19.660696,5.219570720608099,0.1296062527711932
19.663096,5.248858057699676,0.1289907811896413
19.665484,5.280147495537672,0.1283420330289574
19.667864,5.314230430055002,0.1276592172394391
19.67026,5.34980360863955,0.1269361838674786
19.672648,5.376297449051792,0.1263847094566513
19.675028,5.402791289464035,0.1258364162290811
19.677424,5.436362367302167,0.1251508097387286
19.679812,5.465137847714547,0.1245397037539967
19.682196,5.495124032940424,0.1238963230697646
19.684592,5.520546938166029,0.1233644757990505
19.686976,5.552907311190662,0.1227119863399472
19.689376,5.579913008282103,0.1221811244594098
19.691772,5.60850149723938,0.121650430568387
19.69416,5.634249267689079,0.1212147720717226
19.696544,5.656504693325143,0.120866005629271
19.69894,5.674336608587791,0.1206121179169911
19.701324,5.688164322357604,0.1204303298395368
19.703704,5.69477502907467,0.1203857910497692
19.71804,5.716886893368134,0.1203480861832745
19.720436,5.72363736971206,0.1202997481893946
19.72282,5.733321112362179,0.1202097435033672
19.725204,5.74258554613172,0.120147242448046
19.7276,5.761720714006484,0.1199413131394132
19.729988,5.782997752254525,0.119699889481253
19.732368,5.811631567182176,0.1193340982028137
19.734768,5.835330015057215,0.119042856604424
19.737156,5.861961729238449,0.1187116686074582
19.739552,5.882866680434152,0.1184524953838044
19.741948,5.904470479764157,0.1181508047469873
19.744336,5.925282883161244,0.1178477354721084
19.74672,5.948796235439048,0.1174670759276274
19.749116,5.9712386525302135,0.1171026052780421
19.751504,5.994752004808018,0.116716890175929
19.753884,6.013981616339268,0.1164104314973302
19.75628,6.030138191937462,0.1161554222219146
19.758668,6.043873357908661,0.1159565902961674
19.761052,6.061892264626413,0.1156786817277411
19.763448,6.081493963210002,0.1153980412836574
19.78972,6.0640398225732985,0.1151811888056045
19.792116,6.066648223655399,0.1150746263787171
19.794504,6.074052222163252,0.1149128494086528
19.796888,6.0865313573505775,0.1146796644987034
19.799288,6.098079326978124,0.1144555566537288
19.801672,6.111908936605808,0.1141867175227943
19.804052,6.132164157353323,0.1138162325194518
19.806448,6.156191262168194,0.1133626713607146
19.808832,6.179287201423287,0.1129232009224956
19.811228,6.200660579185684,0.1124968374541917
19.813624,6.22175441769436,0.1120869280624818
19.816008,6.246340601016672,0.1116112921488746
19.818388,6.276793316951374,0.1110653288450306
19.820792,6.308037428818994,0.1105207428650381
19.82318,6.342075037365949,0.1099445372056026
19.82556,6.375041710726267,0.1093883985482535
19.827956,6.4089395496463615,0.108819046015145
19.83034,6.438041791140705,0.1083033120606268
19.832736,6.467795658941108,0.1077962455894936
19.83514,6.4966183611817305,0.1073037175776545
19.837524,6.52129709230266,0.1068733413006883
19.839904,6.540109290811201,0.1065174633086865
19.8423,6.555057057453766,0.106208296282545
19.844684,6.566280161857217,0.1059354433328256
19.847064,6.579645136633947,0.1056308262934307
19.849468,6.592078945850898,0.1053345293824072
19.851856,6.599158079134657,0.1051212185396474
19.854236,6.603024406858501,0.104955983735776
19.856636,6.605680029768846,0.1048142629834642
19.859024,6.606193782305912,0.1047034374535605
19.861404,6.608709635589396,0.1045692331455384
19.863796,6.606941748126326,0.1044973999081084
19.866184,6.605173860663255,0.1044260258349729
19.868564,6.601403872453767,0.1043778423743465
19.870968,6.599635984990697,0.1043066172958426
19.873352,6.594795061594571,0.1042736768101789
19.875732,6.588883203011806,0.1042562366618133
19.878136,6.586696006668156,0.1042066801329126
19.88052,6.583717414391586,0.1041577524167663
19.8829,6.581390448421074,0.1041157027936911
19.885304,6.581345122450701,0.104035691337196
19.887688,6.582742818719304,0.1039619992122163
19.890072,6.583441666853605,0.1039251376889034
19.892472,6.588377033906216,0.1038712893773649
19.89486,6.593032861705108,0.10383244592335
19.89724,6.601273582116253,0.1037702934730717
19.899644,6.609654072154257,0.1037009687148771
19.902028,6.6185464188714604,0.1036454756735282
19.904408,6.627578535215523,0.1035828043926741
19.906804,6.639823457119501,0.1034749470812795
19.909192,6.652208148650341,0.1033614740252381
19.911584,6.668876580927733,0.1031889637189345
19.913988,6.680889185406234,0.1030554107975177
19.916372,6.694903890631151,0.1028997637520888
19.918752,6.708266969550011,0.1027390368725193
19.921152,6.7285675162679,0.1025056745286084
19.923536,6.75515390447876,0.1021945598828813
19.925916,6.782299371197061,0.1018578470124907
19.92832,6.81065554272886,0.1015019357232618
19.930708,6.837568692021684,0.1011418019871306
19.933088,6.863410906127868,0.1007975748312517
19.935492,6.890883133928134,0.1004146363004273
19.937876,6.916400482810224,0.1000083424232072
19.940256,6.939031787214364,0.0995925623129427
19.94266,6.959149134192887,0.099183432737614
19.945048,6.976892293372657,0.0987770983442954
19.947428,6.993844056619508,0.0983707030760262
19.949824,7.011634437627521,0.0979233298238703
19.952212,7.029564588262394,0.0974698524485683
19.954588,7.048565674083904,0.0970065381548481
19.956992,7.062771162479664,0.096583266678435
19.95938,7.07297244938259,0.0962008878954722
19.96176,7.082102801098878,0.0958295074070286
19.964164,7.088579425762691,0.0954709733318391
19.966552,7.092914180053227,0.0951398683439227
19.968932,7.090591005798454,0.0948619841186586
19.971336,7.08240129893129,0.0946370615984549
19.97372,7.075934153556824,0.0944070299681383
19.9761,7.067464907435941,0.0941960888210095
19.978496,7.057784956501559,0.0940044678109963
19.980884,7.0523887463137305,0.0937621809931495
19.983264,7.044990435379485,0.0935389935309536
19.98566,7.04317911780391,0.0932802302837121
19.988048,7.038806620974479,0.0930659780769319
19.990424,7.038158786384159,0.0928283392222941
19.992828,7.039513052540255,0.0925734963002971
19.995216,7.043800585002547,0.0922956632295656
19.997596,7.049670909330677,0.0920210453585239
20.0,7.057543334405223,0.0917301900987145
20.002384,7.06448459391999,0.0914468301725092
20.004764,7.0752902853007305,0.0911347687997066
20.00716,7.088749703733948,0.0908125313277175
20.009544,7.105933784406275,0.0904677859328311
20.011924,7.126842527317719,0.0901022120107724
20.01432,7.1476115006023,0.0897421452621384
20.016708,7.171173970566218,0.0893642843612619
20.019104,7.193385966089775,0.08900861667492
20.021496,7.210243285680141,0.0887142329926469
20.023884,7.229754332322981,0.0884111653936658
20.026264,7.253129810831795,0.0880817296619028
20.028668,7.269008743034138,0.0878367991741182
20.031052,7.285259762288819,0.0876133147522005
20.033432,7.298158206356724,0.0874330191126259
20.035836,7.314129686357685,0.0872240237273713
20.038224,7.330101166358646,0.0870172873531155
20.040604,7.342580301545971,0.0868588000548858
20.043008,7.350635926359882,0.0867528242894396
20.045392,7.357760385614013,0.0866528116818896
20.047772,7.36167203930823,0.0865871824463171
20.050168,7.362231117815671,0.086561829632926
20.052556,7.360788095576696,0.0865527421124438
20.054936,7.358693447031662,0.0865359227634657
20.057332,7.356738568113489,0.0865127817379038
20.059716,7.354783689195315,0.0864896574172085
20.062112,7.354970680650418,0.0864444863438459
20.064508,7.358230708038577,0.0863730186927998
20.066892,7.367636807292847,0.0862487186312101
20.069276,7.381466416920531,0.0860747908776106
20.071668,7.39264229949574,0.0859093528397665
20.074056,7.399022584645196,0.0857737448473528
20.07644,7.4098263801680675,0.085588401586495
20.078836,7.419187153451963,0.085393853835827
20.08122,7.429898401176217,0.0851766118881464
20.083604,7.439538713713834,0.0849708050572173
20.086,7.446105990318395,0.0847914063101926
20.088384,7.452021640616898,0.0846034344037033
20.09078,7.464362902035231,0.0843521652983557
20.093176,7.477635329013343,0.0840981856168254
20.095564,7.492909856737874,0.0838293470113373
20.097944,7.513399290768734,0.0835147273841856
20.10034,7.536821991105791,0.0831819991370657
20.102728,7.564248892935682,0.0828235895396465
20.105112,7.589533924392295,0.082486431357074
20.107508,7.612956624729351,0.0821599139307113
20.109892,7.638800734693407,0.081805305145593
20.112288,7.659849247231708,0.0814789633940913
20.114684,7.68210846458351,0.081142189103276
20.117072,7.701434415629115,0.0808246330734444
20.119452,7.720620597047862,0.0805125911383038
20.121848,7.744742145519219,0.0801708377452049
20.124236,7.767001362871021,0.079838169913574
20.126616,7.792333616155877,0.0794844504570555
20.12902,7.821018444627509,0.0791013852301017
20.131404,7.852916078659057,0.0786934387193562
20.133784,7.888445827131101,0.0782429476027076
20.136188,7.92919048190948,0.0777547400113242
20.138576,7.965139539262103,0.0772943241632991
20.140956,7.999366035122031,0.0768381028329634
20.14336,8.035082775049178,0.0763600722487437
20.145748,8.06800601829699,0.0758958912281613
20.148124,8.099066930425247,0.0754406883208642
20.150528,8.125332245127751,0.0750106164757884
20.152912,8.154950135017032,0.0745508672608039
20.155296,8.18349708971967,0.0740999014575203
20.157692,8.205478663675622,0.0737069539096857
20.160076,8.230253734310907,0.0733052812559489
20.162456,8.249813898639857,0.0729432468066132
20.164864,8.273657803715365,0.07255046128905
20.167248,8.301505910283705,0.072137396682341
20.169632,8.326420750545852,0.0717410629586782
20.172028,8.352918382673835,0.0713508317802534
20.174412,8.376203209241899,0.0709865789739847
20.176796,8.393062424690134,0.0706725774076439
20.179192,8.407919539391951,0.0703717975124512
20.181576,8.420075705213051,0.0701093134083574
20.18396,8.431021166220653,0.0698623132860582
20.186364,8.439684987228116,0.0696350670264495
20.188748,8.448069268981858,0.069418644047167
20.191132,8.456174011481881,0.069214348427897
20.193528,8.462136883608629,0.0690250002518595
20.195916,8.469170690922013,0.06882871253226
20.198296,8.477787290101233,0.0686384735941502
20.200692,8.485332954093815,0.0684568994768631
20.20308,8.497022589206091,0.0682519499979999
20.20546,8.51378736099784,0.0680204306161278
20.207856,8.531623067976227,0.0677832167951132
20.210244,8.548387839767974,0.0675525292820878
20.21264,8.557516295626392,0.0673780965631724
20.215044,8.561569614805338,0.0672300603069272
20.217428,8.562689667678091,0.0670931250180685
20.219808,8.561807619804423,0.0669655564521016
20.222212,8.56371906861009,0.0668318723635821
20.224596,8.566701452602398,0.0666905426067674
20.226976,8.565260326221292,0.066583016510843
20.22938,8.56689223577324,0.0664593876338623
20.231764,8.56596296607133,0.06636568661209
20.234144,8.57183139454159,0.0662475814677752
20.236548,8.578630988571629,0.0661276925574931
20.238932,8.580075906668474,0.0660432984737887
20.241312,8.58617665256421,0.0659489651434681
20.243716,8.590135528086671,0.0658689599606639
20.2461,8.594234173235993,0.065784203648468
20.24848,8.59898444469137,0.0657080252123832
20.250884,8.600521910586831,0.065652998890404
20.253272,8.602059376482293,0.0655982917841684
20.255652,8.6005238064447,0.0655591111514856
20.258048,8.603132207526803,0.0654978240487616
20.260436,8.61495971640807,0.0653908204198024
20.262816,8.63200213159567,0.0652556832310302
20.265212,8.654771309768796,0.0651054191527183
20.267596,8.679030732009146,0.0649340757584924
20.269976,8.70063642719702,0.0647636938451317
20.27238,8.72531515831795,0.0645792105456051
20.274764,8.753486234252517,0.0643643979578669
20.277144,8.776070316828411,0.0641604550105812
20.27954,8.797351146792192,0.0639396353066872
20.281928,8.814907314516857,0.063727134289086
20.284308,8.829809755189048,0.0635147746602802
20.286704,8.849275475861516,0.0632661387033467
20.289092,8.866367008735226,0.0630092665055566
20.291484,8.886811116795714,0.0627293259302373
20.293892,8.905532663363505,0.0624483785218296
20.296276,8.921740252505684,0.0621631724695022
20.29866,8.93636504978202,0.0618711189377023
20.301052,8.94847588963275,0.0615748426651412
20.30344,8.960074872804277,0.0612650222012139
20.30582,8.971953395229525,0.0609478379667502
20.308224,8.976103053922827,0.0606523909158697
20.310612,8.975596884817238,0.0603642857598643
20.312992,8.972716527912892,0.0600668632635893
20.315392,8.972769437314744,0.0597623208145045
20.31778,8.974033051530094,0.0594471386398045
20.32016,8.97199131238691,0.0591228268886317
20.322564,8.971020508430366,0.058793347907441
20.324952,8.973262510033734,0.0584459089288044
20.327332,8.975784050890828,0.0580879963121754
20.329728,8.976862569508944,0.0577177059522796
20.332116,8.982085059246753,0.0573298747777003
20.334492,8.986376383424783,0.0569440817171154
20.336888,8.989736542043039,0.0565594358417299
20.339276,8.992956931034431,0.0561817178231173
20.341656,8.99817942077224,0.0557982758825937
20.34406,9.005404011256466,0.0554092610717907
20.346448,9.014351163233387,0.055023033301219
20.348828,9.020876905583314,0.0546556462610163
20.351224,9.032849871665048,0.0542900412690444
20.353612,9.041610032186869,0.0539414699242598
20.355992,9.05437439420152,0.0535809657434643
20.358396,9.06858177845515,0.0532328831440712
20.360784,9.08050752270864,0.052899963462966
20.363164,9.090151626961994,0.0525840627223738
20.365568,9.09844525677499,0.0522825776893179
20.367956,9.109764700692798,0.0520025620375555
20.37034,9.11908204386419,0.051728726212292
20.372736,9.126909142968364,0.051473784645097
20.375124,9.13818136505793,0.0512267795947569
20.377504,9.151688005319388,0.0509971111532402
20.3799,9.159700200020794,0.0507966573937639
20.382284,9.167432855468478,0.0506056906302328
20.384664,9.17460643240872,0.0504327411301205
20.387072,9.176425333415771,0.0502839648246107
20.38946,9.174891659236051,0.0501541341258338
20.39184,9.17014517949641,0.0500385904690008
20.394236,9.164467534196993,0.0499231414649042
20.396624,9.166006895950323,0.0497836729455445
20.399004,9.161539955464404,0.0496592807971866
20.4014,9.156793475724765,0.0495436555072687
20.403788,9.150416982291048,0.0494508232921278
20.406168,9.145111424043964,0.0493533778170637
