Time,Force,Position
19.18788,3.434683374193676,0.1745798306837437
19.21656,3.607587183435151,0.1744711263878304
19.226112,3.6222969450786313,0.1742924215289475
19.228492,3.641103456013563,0.1740420552704811
19.230888,3.6683376788147424,0.1734515873699036
19.233276,3.6969223760562806,0.1727923878657718
19.23566,3.727601721842853,0.1721351308228944
19.238056,3.7696873717722417,0.1712140794185842
19.24044,3.817639554314021,0.1701063474588879
19.242824,3.8677808290573217,0.1687881124370553
19.245228,3.905072777418829,0.1677781445852892
19.247612,3.935754019063269,0.1669217789707618
19.249996,3.965504095147932,0.1661219887731796
19.252396,4.005077683509576,0.1650324793780002
19.254784,4.051076882991051,0.1636683071813906
19.257164,4.094981433927493,0.1622995332509891
19.25956,4.12943455963929,0.1612541071368906
19.261948,4.161698593149568,0.1604071091969072
19.264328,4.191214455950885,0.1597992645203822
19.266724,4.217517513192286,0.1593149737339007
19.269112,4.243495705209592,0.1587219673734431
19.271508,4.267146931256388,0.1580917591791665
19.273904,4.289774443944788,0.1574477250161751
19.276292,4.31147079107341,0.1568519107454678
19.278672,4.327300605589641,0.1564407491007481
19.281072,4.340523914881642,0.1560245415638642
19.28346,4.350489092643352,0.155601551879937
19.288236,4.340295389171903,0.1555982492141941
19.290624,4.33903935838803,0.1555259936834412
19.293008,4.34858522726916,0.1551537655596592
19.295404,4.360552505777288,0.1546851612166073
19.297792,4.371029540218195,0.1542954340583532
19.300172,4.378433538726048,0.1539988209316558
19.302572,4.383788214659241,0.1538265632594252
19.30496,4.393426631338987,0.1535178769704003
19.30734,4.40804763689959,0.153008635375057
19.309736,4.4199223676091,0.1525044974573487
19.312124,4.429562680146715,0.152016260219258
19.314504,4.437992287870833,0.1515676491084342
19.316904,4.4475853785802055,0.1511369701407008
19.319292,4.458109634849357,0.1506836309964082
19.321672,4.468913430372228,0.1502151516808636
19.324068,4.477295816268102,0.1498438245719462
19.326456,4.484839584402814,0.149542054129099
19.328852,4.494478001082561,0.1492406863271574
19.331248,4.504628274441505,0.1489571940460524
19.333636,4.522275094106919,0.1484391712236951
19.33602,4.538758430787078,0.1478975547641739
19.338416,4.550678487466962,0.1475199315317624
19.3408,4.557383637840514,0.1472995444481952
19.34318,4.561946917840789,0.1471448972251102
19.345584,4.56455531892289,0.1469793676599277
19.347972,4.571307691124685,0.1466976254981991
19.350352,4.57847937220706,0.1463795268085433
19.352748,4.584300578849076,0.1461213694856856
19.355136,4.585838044744538,0.1459908209380362
19.35752,4.586164805826503,0.1459036840691424
19.359916,4.587143193214525,0.1458202871089076
19.362304,4.5949192787747135,0.1455745572750566
19.364684,4.606420026574017,0.1452540099498737
19.36708,4.618572400679378,0.1449386204495661
19.369468,4.624578702918629,0.1447868759365919
19.371852,4.63100431403846,0.1446009827255862
19.374248,4.642365292210903,0.144294685564394
19.376632,4.649861838517373,0.144077273548709
19.379016,4.655775592958007,0.143875649113735
19.381412,4.659407707398503,0.1437499231318455
19.3838,4.666205405570672,0.143594849444681
19.386196,4.676587996355094,0.1433765428956715
19.388592,4.687622213445573,0.1431608761715224
19.39098,4.701449927215388,0.1428894168351568
19.393364,4.713507857664263,0.1427026659356277
19.39576,4.724866939978837,0.142577902230206
19.398148,4.738600210092166,0.1424333702981798
19.400532,4.750983005765135,0.1423418395495369
19.402928,4.764948593303941,0.1422337701359566
19.405316,4.78170767752208,0.1420705412484746
19.407696,4.801400028046415,0.1418430336946244
19.410096,4.816948407451058,0.1417262467977441
19.41248,4.827701189429948,0.1417125998858908
19.414864,4.837802345102779,0.1416950749223291
19.417264,4.851116306335527,0.1415880126618597
19.422036,4.870247682494553,0.1415791181590872
19.424432,4.884073500406499,0.1414892166537318
19.4316,4.922103935299073,0.1414359617389808
19.433988,4.933787882837741,0.1414069054395361
19.438764,4.9562246123553,0.1413654715838717
19.441148,4.9719599832150445,0.1411870978984739
19.443532,4.983458835156479,0.1410629298411914
19.445936,4.993095355978357,0.1409746288419203
19.448324,5.00608445198701,0.1407938486967482
19.450704,5.0217744968763816,0.1405176052930139
19.4531,5.032808713966861,0.1403251085113531
19.455487999999995,5.040769895124285,0.1402058088981399
19.457868,5.052595508147683,0.1400107976442074
19.460268,5.0694962578505525,0.1397047076562617
19.462656,5.089470043486478,0.1393342395092331
19.465036,5.11144592986882,0.1389254614052934
19.467432,5.1363550825573565,0.1384579436425526
19.46982,5.161264235245895,0.1379879353800944
19.4722,5.179934768269704,0.1376125033234468
19.4746,5.198932062375477,0.1371633817666061
19.476988,5.219140061294749,0.1366722803263645
19.479372,5.240139456146939,0.1361805306838766
19.481768,5.256203483946517,0.1357901099041405
19.484156,5.273385668760977,0.1353224172058036
19.48654,5.290987162456016,0.1348228280152251
19.488944,5.30495654171056,0.134436282137286
19.491328,5.321579648017578,0.1340118504944234
19.493712,5.33904137208576,0.1335303042162607
19.496108,5.351707498728188,0.1331377444558769
19.55106,5.164955121280338,0.1328912279772491
19.553464,5.162907694563548,0.1328304965995946
19.555848,5.167098887511484,0.1326872898796197
19.558228,5.177016843444951,0.1324447694072169
19.560632,5.191218540124972,0.1321032139838845
19.56302,5.206491171991632,0.1317361890769104
19.565396,5.214918883857879,0.1315502019522966
19.567792,5.224929387589965,0.131356191027646
19.570176,5.240015028001521,0.1310580699883242
19.572556,5.2510964669202425,0.1308382058655852
19.574956,5.260315574719409,0.1306463208006653
19.57734,5.272188409571051,0.1304213612780698
19.57972,5.288996611475304,0.1301043614970988
19.582116,5.3067359789393365,0.1297738381570124
19.5845,5.32289255453753,0.1294533429475594
19.586896,5.337838425322226,0.1291694696850595
19.5893,5.356928267226617,0.12880220884882
19.591684,5.375878339504146,0.1284474443104493
19.594064,5.396318655848895,0.1280382675527256
19.596468,5.414617101820367,0.1276822159237336
19.598852,5.431053216672282,0.1273539628779505
19.601232,5.447209792270477,0.127050308496662
19.603632,5.458710540069781,0.1268153938299691
19.60602,5.466626395256832,0.1266253017651694
19.6084,5.473331545630383,0.1264694448914439
19.610804,5.484040897496768,0.1262447672871135
19.613188,5.496380263057232,0.1259579891017556
19.615568,5.50862708081908,0.1256314870122958
19.617964,5.522224373021286,0.1252694725616508
19.620348,5.541176341156687,0.1247998492918012
19.622728,5.564132510784918,0.1242620066718873
19.625132,5.586716593360814,0.1237062446792933
19.627516,5.608649049630653,0.1231535907167057
19.629896,5.630861045154211,0.1225866346061647
19.632292,5.655866537357104,0.1219870950406151
19.634676,5.681803195119775,0.1213782157618858
19.637072,5.706529148068948,0.1208084355585015
19.639468,5.732605575458479,0.1202065764382647
19.641852,5.760544333967566,0.1195870887327258
19.644232,5.78582936542418,0.1189920179108665
19.646636,5.812325101694292,0.1183676583778166
19.64902,5.838029442031487,0.1177519834960326
19.6514,5.86480471755532,0.1171123372410854
19.653804,5.895304655318264,0.116428603490707
19.656192,5.924082031588513,0.1157593388128463
19.658572,5.944990774499956,0.1152076303335304
19.660976,5.969996266702847,0.1146399730693165
19.663364,5.991090105211524,0.1141743480645827
19.665744,6.007248576667588,0.113783375407037
19.668148,6.019914703310016,0.1134711203712122
19.670532,6.034722700325721,0.1131269052970627
19.672912,6.048831849207127,0.1128270763840776
19.675308,6.061590523648171,0.1125653349221806
19.677696,6.075280363648996,0.1122963468409628
19.680076,6.086968102903402,0.1120574594294563
19.68248,6.096653741411393,0.1118468214150487
19.684864,6.103545883240048,0.1116665509683133
19.687248,6.108156385068565,0.1115313809092476
19.689644,6.111695951710445,0.1114150171391297
19.692032,6.120031115778077,0.1112433768066396
19.694412,6.1318114028311,0.1110520163755947
19.696816,6.143172381003542,0.110885718114212
19.699204,6.160399891788376,0.1106509913825729
19.701584,6.177627402573209,0.1104191847225145
19.70398,6.199510741156934,0.1101449797677089
19.706364,6.224839202726053,0.1098466427766844
19.708744,6.246582771682918,0.1095792647570664
19.711148,6.270607980639919,0.1092677416734033
19.713536,6.297938542955454,0.108943023272078
19.715916,6.327410975644266,0.108586235978149
19.71832,6.352180358705943,0.1083238771418821
19.720704,6.37708951139448,0.1080548610831322
19.723084,6.400927728896379,0.1078028404631133
19.725488,6.423275702331059,0.1075925098158891
19.727876,6.446135532444937,0.1073967850663147
19.730256,6.473790959984568,0.1071520439717017
19.73266,6.503029179390033,0.1069052187256221
19.735048,6.532267398795497,0.1066583934795425
19.737428,6.561365848574104,0.1064210919733132
19.739824,6.587391262419653,0.1062275090487142
19.742208,6.607038286973616,0.1060866940905648
19.744588,6.622820879661603,0.1059859965966447
19.74698,6.635530436416536,0.1059285010265415
19.75176,6.646470209850529,0.1059247556458442
19.754164,6.6505669591419805,0.105913461225101
19.756552,6.652149751007816,0.1059118912359151
19.758928,6.655083017314011,0.1058798445709071
19.76372,6.652616281716639,0.105845553868647
19.7661,6.648287214999712,0.1058277060150386
19.7685,6.642375356416947,0.105811245101527
19.770888,6.637953741901402,0.1057567011204997
19.773268,6.6334395795872405,0.105665680324221
19.775672,6.6286930998476015,0.1055457403398978
19.778056,6.61943056193593,0.1054584934177043
19.780436,6.606443361785145,0.1054035172176346
19.78284,6.593595931261222,0.1053410184167571
19.785224,6.579957104804381,0.1052789329787213
19.787608,6.567668752787896,0.1051863738829144
19.790008,6.558313667077609,0.1050622722612597
19.792396,6.555384192487153,0.1048462106134723
19.794776,6.547659120470945,0.1046769717522159
19.797176,6.544450106626768,0.1044756919435817
19.799564,6.5472473950218415,0.1042046246904447
19.801944,6.54739095636444,0.1039504404944866
19.80434,6.553121511065708,0.1036500166649559
19.806724,6.557501591326618,0.1033800695112474
19.809104,6.562952606774166,0.1030952639992575
19.811508,6.572547593341408,0.1027584513946515
19.813892,6.584144680655067,0.1023988299610116
19.816272,6.595741767968726,0.1020387463694459
19.818668,6.6031948841626935,0.1017304275226247
19.821056,6.608366360356521,0.1014589926868175
19.823436,6.610325030990432,0.101231491718285
19.82584,6.6141460327439,0.1009891493868926
19.828228,6.622390544870783,0.1006791921571879
19.830604,6.630914596251387,0.1003551586727271
19.833003999999995,6.638787021325931,0.1000240199641454
19.835392,6.644238036773479,0.0997375386603151
19.890352,6.371023240177367,0.0995398289847373
19.892736,6.378472564655594,0.0994830717553592
19.89512,6.3908572561864325,0.099376819990797
19.897524,6.406314983650327,0.0992370289207844
19.899908,6.42256410704714,0.0990973595884073
19.902288,6.450406526041872,0.0988560247600872
19.904684,6.480390815409881,0.0985865763310959
19.907072,6.512656744778027,0.0982845436743945
19.909452,6.546645235638871,0.0979756231190567
19.911856,6.584637927992548,0.097626782830961
19.914244,6.621187598107247,0.0972705608275893
19.916624,6.65694587228903,0.0969126627406527
19.919028,6.698291139829482,0.0965187236680775
19.921412,6.74405991774335,0.0960627524459605
19.923796,6.789688926030357,0.0956144799634856
19.926192,6.836388869504004,0.0951506408601152
19.928576,6.882716725925312,0.0946696162086049
19.93096,6.922386653801313,0.0942449605938209
19.933356,6.957912610557618,0.093870087523769
19.935744,6.990133213955391,0.0935063795405214
19.938124,7.019048463994632,0.0931485125194694
19.94052,7.045170217354537,0.0928138620893166
19.942908,7.067147999594748,0.0925262497875139
19.945288,7.085540889222706,0.0922597994860435
19.947688,7.106215418850802,0.0919627741964395
19.950072,7.119161084746951,0.0917313011913066
19.952464,7.135459325829875,0.0914593653397973
19.95486,7.150546862099302,0.0912084361187342
19.957244,7.167124642435945,0.0909275327605871
19.959624,7.181048695720115,0.0906586547507722
19.962028,7.194181353071366,0.0903882673757192
19.964412,7.210526815982534,0.0900830653548027
19.966792,7.22235622072167,0.0898012746188209
19.969184,7.232043755087529,0.0895443579994504
19.971568,7.242941994266887,0.0892700871675889
19.973964,7.256121873446382,0.0889676416725816
19.976368,7.265157781506184,0.0887046124083257
19.978756,7.277918351805098,0.0884202952337947
19.981136,7.292029396544373,0.0881112912381908
19.98354,7.303998570910369,0.087826118141177
19.985924,7.322485904194813,0.0875077687859241
19.988304,7.337248575240144,0.0872091016761772
19.9907,7.356434756658889,0.0868601541048517
19.993084,7.376132794756833,0.0865264608670332
19.995464,7.392478257668002,0.0862338968549766
19.99786,7.408172094273111,0.0859339492408637
20.000248,7.416369384571752,0.0857132714575999
20.00264,7.420702243004418,0.0855179075116671
20.005048,7.421822295877169,0.0853564496570988
20.007432,7.42880888136231,0.0851556982189784
20.009812,7.444967352818375,0.0849171478336207
20.012212,7.458052788341383,0.0847057160798415
20.014596,7.47192961979731,0.0844966519531977
20.016976,7.484735516066598,0.0842980697083231
20.01938,7.4974016427090255,0.0841066638039029
20.021764,7.510207538978315,0.0839113972267378
20.024148,7.531161607860131,0.0836526132218726
20.026544,7.552255446368807,0.0833893255987976
20.028928,7.573069745623763,0.083138483679737
20.031312,7.597888246371554,0.0828604440749429
20.033704,7.618562775999649,0.0826203105863403
20.036092,7.646035003799913,0.0823408459089338
20.038472,7.667221390107205,0.0821161683653836
20.040872,7.689758250854859,0.0818715854329261
20.043256,7.716578852349066,0.0815888484786122
20.045652,7.74391131052247,0.0813199973491769
20.048048,7.773385639069151,0.0810289011012721
20.050436,7.805653464295167,0.0807240686133005
20.052816,7.838200828774905,0.0804068912966898
20.05522,7.860737689522558,0.0801615637910937
20.057608,7.874754290605344,0.0799608814937935
20.059988,7.893706258740742,0.079730756121373
20.062392,7.910795895756586,0.0795086913135402
20.06478,7.931098338332343,0.079258636334323
20.06716,7.951540550534961,0.0790041783618187
20.069556,7.967279713110445,0.0788053849982226
20.07194,7.973520228633041,0.0786868804236554
20.07432,7.976827477849442,0.0785853171213777
20.076724,7.984558237439258,0.0784413340575419
20.079112,7.989076191469159,0.0783260702266633
20.081492,7.98800715214039,0.0782319708882369
20.083896,7.980931810572371,0.0781767466609896
20.08628,7.9812132456839615,0.0780624288579233
20.088664,7.978281875235636,0.077975887437118
20.091056,7.971206533667615,0.0779203892351541
20.093444,7.96720422803265,0.077843328147134
20.095824,7.96748566314424,0.0777303426712545
20.09822,7.969908968629107,0.0775997521010286
20.100608,7.976988101912867,0.0774531778504431
20.102988,7.988211206316318,0.0772757375193135
20.105384,7.999713849973491,0.0770870529783154
20.107772,8.007212292137831,0.0769240970239123
20.110152,8.018714935795003,0.0767378844408653
20.112556,8.027935939452037,0.0765754560015428
20.114944,8.035946238295574,0.0764276084275438
20.117324,8.050661687512662,0.0762175327444874
20.11972,8.075667179715557,0.0759384664960481
20.122104,8.1054682693442,0.0756393698681579
20.124483999999995,8.128983517479876,0.0753880657839918
20.126888,8.151567600055769,0.0751394658786531
20.129276,8.180018215244056,0.0748602719228211
20.131656,8.213404197484953,0.0745556438247614
20.13406,8.242506438979298,0.0742882730632996
20.136448,8.269746349354083,0.0740253320070046
20.138828,8.29912813010215,0.0737459051793114
20.141224,8.326787349357515,0.0734698912913046
20.143612,8.352164928612746,0.0732185614257657
20.145992,8.37581994637528,0.0729693582204484
20.148392,8.397752402645118,0.0727235180477499
20.15078,8.421826729288233,0.0724634194645754
20.153172,8.446412912610546,0.0722166544885202
20.155568,8.47127863518658,0.0719601263701834
20.157956,8.492559465150359,0.0717110147052988
20.160336,8.51332843843494,0.0714489665855963
20.16274,8.5357274254136,0.071159381066174
20.165124,8.551188944593234,0.070904890517251
20.167504,8.55785066485428,0.0706899581125353
20.1699,8.56199842768971,0.0704732133377913
20.172288,8.56949876571192,0.0702286232624516
20.174668,8.581562383734404,0.0699448618797326
20.177068,8.594836706570385,0.0696503014897615
20.179456,8.603734740861196,0.0693580571032885
20.181836,8.60997904809953,0.0690668037185779
20.184232,8.62050709608442,0.0687457678953476
20.18662,8.627450251457057,0.0684283990200292
20.189,8.630528974963719,0.0681247433575399
20.191396,8.629231409925211,0.0678211097554407
20.193788,8.626071513767148,0.067521419285238
20.196168,8.61718485462355,0.0672392738952201
20.198564,8.605225159546903,0.0669739195115125
20.200952,8.592893377417912,0.066689835573351
20.203348,8.580561595288925,0.0664055880400236
20.205744,8.568881439465995,0.0661290691137498
20.208128,8.561345254762758,0.0658298245814381
20.210508,8.553389761178941,0.0655463653967003
20.212912,8.548367533901322,0.065251282736669
20.215296,8.547629047370254,0.0649279658640417
20.217676,8.545819625652548,0.0646115281991387
20.22008,8.542008103188426,0.0643040106984923
20.222464,8.53405260960461,0.0640193754044472
20.224844,8.523024080087739,0.0637501141461144
20.22724,8.51450950799648,0.0634854571614264
20.229628,8.509719598144336,0.0632136297796548
20.232008,8.506000623478831,0.0629362415248309
20.234412,8.506797706985358,0.0626558018357079
20.236796,8.513461323104275,0.0623565152850728
20.239176,8.526643098141639,0.0620468194391201
20.24158,8.544480700977894,0.0617308217209478
20.243964,8.566182735680123,0.0614032666636857
20.246344,8.591097575942268,0.0610582178964879
20.24874,8.615732876950693,0.0607234202411951
20.251128,8.63929724277248,0.0603955189003269
20.253524,8.662209982288207,0.0600598307100775
20.25592,8.680699211430522,0.0597559992845216
20.258303999999995,8.69653471352036,0.0594514969872961
20.260684,8.71209067635648,0.059157353676995
20.263088,8.725364999192461,0.0588812510391116
20.265476,8.738359782774724,0.0586147859660801
20.267856,8.752145962289903,0.0583523223122678
20.27026,8.764721436991582,0.0581003960551474
20.272648,8.779299012439681,0.057841880711987
20.275028,8.790012156021804,0.0575925031918141
20.277424,8.803798335536984,0.0573321916901985
20.279808,8.816234040611802,0.0570891283915991
20.282192,8.829089054567202,0.0568334872463663
20.284596,8.839010802216407,0.0565870608582928
20.28698,8.846278822813138,0.0563400173025106
20.28936,8.852615677850093,0.0560956173246613
20.291764,8.857741828073546,0.0558615086085787
20.294152,8.859655172737085,0.0556445802671712
20.296532,8.86450178370682,0.0554211072144781
20.298936,8.87135049542297,0.05519176576886
20.301324,8.880433625311014,0.0549794632872644
20.303704,8.888585589639279,0.0547673554646126
20.3061,8.901533151393298,0.0545479184883561
20.308488,8.914900022027897,0.0543150067374277
20.310868,8.929058288595414,0.0540861749686645
20.313264,8.946289591095983,0.0538468414164551
20.315652,8.96244995840992,0.053612894603548
20.318032,8.98047265684341,0.0533774648679521
20.320428,8.99742442009026,0.0531481717644586
20.322816,9.020382485576365,0.0529022192958225
20.325196,9.038405184009852,0.0526698764942445
