Time,Force,Position
20.926188,3.272606720042999,0.2045998899468087
20.928568,3.2764711519089724,0.2044260169562304
20.930972,3.2858281334771293,0.204192544952051
20.93336,3.3038432484791427,0.2038168949929951
20.93574,3.336290481728785,0.2029556277575145
20.938144,3.38498683837524,0.2013531226298131
20.940532,3.43703577020847,0.1995611377390004
20.942912,3.4892244716685616,0.1977639601826442
20.945316,3.536849893128378,0.1962893317816363
20.947704,3.590341847200584,0.1945872734685634
20.950084,3.645231497541393,0.1927265704211641
20.95248,3.690624396687184,0.1911332248959087
20.954868,3.7327591643026863,0.1895400660693958
20.957252,3.775685327851105,0.1879777617144044
20.959648,3.826385681101846,0.1863195600055344
20.962036,3.87862160439018,0.1847736100934021
20.96442,3.935513355477405,0.1830262559315639
20.966816,3.9977597824978233,0.1810064454211128
20.969204,4.056234325450884,0.1792611318373626
20.971584,4.1100983665754285,0.177880766065745
20.97398,4.168990322551201,0.1763896975234203
20.976368,4.223366220354942,0.1750715843844132
20.978748,4.268245366963667,0.1739460446457998
20.981144,4.305862180549268,0.1729857801822737
20.983532,4.3388231663359775,0.1722042029782058
20.985912,4.36936274249569,0.1715805296352081
20.988308,4.399250692349344,0.1709710520600739
20.9907,4.4294654032849605,0.1702783628961274
20.99308,4.459447796795102,0.1695474741772466
20.995476,4.486309932543945,0.1690039072156849
20.997864,4.516522747621693,0.1685292549653203
21.000248,4.553997895722563,0.1679326331458175
21.002652,4.597339576435825,0.167169261136096
21.00504,4.639797313417552,0.1663930408335284
21.00742,4.675225034801632,0.1657996155912396
21.009816,4.706369015439159,0.1653553237947589
21.012204,4.74151719756952,0.1648113395614453
21.014584,4.774710500781707,0.1642729668276607
21.016988,4.803062880597766,0.1637420661278673
21.01938,4.829600151122515,0.1631946434725308
21.02176,4.851853680900708,0.162786819550771
21.02416,4.878064190343492,0.162332649404791
21.026544,4.910233780197284,0.1617660002807845
21.028924,4.946267801917049,0.1610977208267676
21.031332,4.982441593263673,0.1604240648286427
21.03372,5.012189773490468,0.1599547739851224
21.0361,5.044404689314633,0.1595135246764362
21.038496,5.072707951444582,0.1592279679286908
21.040884,5.099428421708694,0.1589622780502735
21.043264,5.126894961935351,0.158586819223264
21.04566,5.154176406564773,0.1581326655048319
21.048048,5.180526685634417,0.1577090722528696
21.050432,5.203803928771006,0.1573763511127288
21.052824,5.221494178548924,0.1571631773538968
21.055212,5.233085578288976,0.15705146308214
21.057596,5.244444660603549,0.1569039123608607
21.059992,5.253382333291126,0.1568428507460232
21.06238,5.266556524897013,0.156722040681714
21.06476,5.284618861727269,0.1565397769665048
21.067156,5.301889802624608,0.1563645916656459
21.069544,5.322513318708722,0.1560903590471311
21.071924,5.345278705166113,0.1557684039935133
21.074324,5.371117127556561,0.1553809473608219
21.076708,5.397374858827588,0.1549708273103634
21.079092,5.424610977486635,0.1544983146009899
21.081488,5.4560382890936205,0.1538719044890881
21.083876,5.479783958796904,0.1533508987178813
21.086272,5.5079531388736,0.1527084562457283
21.088676,5.538124419696713,0.1520227457282972
21.091064,5.5638721901464105,0.151459514149587
21.093444,5.581471787983582,0.151086599654227
21.09584,5.596277889141419,0.1507675498291965
21.098232,5.612946321418811,0.1504182538043958
21.100612,5.633851272614514,0.1500121873777041
21.103012,5.663416253101943,0.149431009865316
21.1054,5.697264974335926,0.1487512169868542
21.10778,5.728879277398015,0.1480878242356428
21.11018,5.755697983034353,0.1475276847854009
21.112568,5.782004831991493,0.146960712061166
21.114952,5.81045355132191,0.1463430423506924
21.117348,5.835736686920653,0.1457567511748436
21.119736,5.851987706175335,0.1453150941036475
21.12212,5.864793602444623,0.144925531385373
21.124516,5.873455527594217,0.1446270492494335
21.126904,5.878485338303316,0.1444321156323572
21.129288,5.87923140826586,0.1443360235050368
21.131684,5.884773075654156,0.1441523996256189
21.134072,5.890035203788732,0.1439893199038013
21.136452,5.894086627109808,0.1438605643325588
21.138852,5.901211086363941,0.1436672079830065
21.14124,5.9164837182306,0.1433056636280605
21.14362,5.931384263044923,0.1429213478940623
21.14602,5.942839684873852,0.1425819397075551
21.148404,5.954062789277305,0.1422149481042815
21.150788,5.963703101814921,0.1418657159881029
21.153184,5.968547816926784,0.1416006918952686
21.155572,5.97246136647887,0.1413497732886446
21.157956,5.977306081590734,0.1410850165046367
21.160352,5.98080032226224,0.1408619460617676
21.16274,5.982804318866525,0.140689137624915
21.210524,5.910422785350117,0.1405997532687769
21.212912,5.908654897887047,0.1405311613423685
21.215292,5.906514923371639,0.1404408357203984
21.217688,5.91145218628212,0.1402164500925491
21.220076,5.916389449192601,0.1399929888157266
21.22246,5.9273330143423335,0.139661307606756
21.224856,5.940138910611622,0.1393030259528661
21.227244,5.955179225052805,0.1389408527020528
21.229624,5.970079769867128,0.1385854155988724
21.232028,5.985911480241229,0.1382171300788541
21.234416,6.001603420988469,0.1378604080921049
21.236796,6.021579102482263,0.1374156791589871
21.239192,6.0396924528565,0.1369973953643362
21.241584,6.05687463767096,0.1365916660791537
21.243964,6.078248015433357,0.1360583751947098
21.246364,6.092870916851828,0.135583059134471
21.248752,6.107121731217961,0.1350833776319212
21.251132,6.120581149651177,0.1345891903647782
21.253532,6.133109402524615,0.1341084378241791
21.25592,6.141493684278358,0.1337122373548502
21.2583,6.143592124539131,0.1334432012833575
21.260696,6.145411025546182,0.1331923860147714
21.263084,6.149464344725129,0.1329372754078054
21.265468,6.149653232038102,0.1327453686488243
21.267864,6.149190493045016,0.1325496088661778
21.270252,6.141790286252902,0.1324721605946598
21.272636,6.132667517968092,0.132411664582402
21.275032,6.121961957817444,0.1323593045096304
21.27742,6.113817576920654,0.1322376396901287
21.279804,6.10436994341175,0.1321068000272672
21.282204,6.0913374172905925,0.1320183745500587
21.284592,6.074160920049741,0.1320060376236882
21.286972,6.061640250607781,0.1319290943942654
21.289372,6.052192617098876,0.1317968208588562
21.29176,6.041254739522752,0.1317102933836086
21.29414,6.038278043104052,0.1315368087627604
21.29654,6.037535764857246,0.1313597118323981
21.298928,6.0379569695956965,0.1312003760534952
21.301308,6.040240505453703,0.1310160976276506
21.303708,6.044386372431265,0.1308067874642146
21.306096,6.052256901647942,0.1305462790051338
21.30848,6.059987661237757,0.1302948603141487
21.310876,6.06413352821532,0.1300851661053078
21.313264,6.068931021498941,0.1298796764020107
21.315648,6.07465968034234,0.1296625870772389
21.318048,6.084252771051713,0.129386009819202
21.320436,6.098222150306258,0.1290672864338202
21.32282,6.112051759933943,0.1287578803130801
21.325216,6.123180420680908,0.1285246214176801
21.327608,6.138266061092465,0.1282752973625985
21.329992,6.160521486728527,0.1279483302142862
21.332384,6.1860822657231225,0.1275979570409372
21.334772,6.20922163509072,0.1273089816430236
21.337152,6.23007936445818,0.1270707739422775
21.339552,6.2497263890121415,0.1268617261617163
21.34194,6.268721787260046,0.1266498607138065
21.34432,6.289067659948309,0.1264040580561107
21.346716,6.311834942263569,0.1261056459389459
21.349108,6.333391519765329,0.1258357844063796
21.351488,6.35601903245373,0.125549189695002
21.353888,6.37864654514213,0.125264223426775
21.356272,6.405790116002562,0.1249362959418566
21.358656,6.437170205781305,0.1245775810287628
21.361052,6.47255449705288,0.1241633302487679
21.36344,6.507379709817016,0.1237831473011082
21.365824,6.5407146785139325,0.1234456268267121
21.36822,6.570836841650933,0.1231684994412804
21.370608,6.600539695907352,0.1229144921676676
21.372992,6.635317686843245,0.1225858285662353
21.375388,6.667441950726663,0.1222856270662956
21.377776,6.6949103868111886,0.1220418991112218
21.38016,6.720935800656738,0.1217970039088446
21.382556,6.747520293009729,0.1215230663610614
21.384944,6.773173619802941,0.1212579393914174
21.387328,6.798826946596155,0.1209921168368909
21.389724,6.825690978202866,0.1207045337644144
21.392112,6.852275470555856,0.1204359516630391
21.394492,6.871642955856097,0.1202747380667993
21.396888,6.892221145969837,0.1200888846608894
21.39928,6.9118681705238,0.119915186505879
21.40166,6.930723799144843,0.1197446922358088
21.40406,6.945203139220715,0.1196111025985081
21.406448,6.959589931497969,0.1194452871916361
21.408828,6.9663876296701375,0.1193636143165977
21.411224,6.9748153415363845,0.1192366305349957
21.413612,6.987154707096851,0.1190244317976573
21.415996,6.998330589672061,0.1187948542859927
21.418392,7.010205320381569,0.1185291382610002
21.42078,7.018495158478827,0.1182957269058019
21.42316,7.025202204710248,0.1180666023556129
21.42556,7.03218879019539,0.117823321799534
21.427944,7.038895836426811,0.1175944255642626
21.430328,7.046394278591151,0.1173651038174424
21.432728,7.055103425568989,0.1171119536419652
21.435116,7.063160946240768,0.1168531414195761
21.437496,7.070938927658828,0.1166108631036419
21.439896,7.076063182024412,0.116388883817576
21.44228,7.088823752323326,0.1160471527877877
21.444664,7.104005732249239,0.1156631747464987
21.447068,7.116254445868954,0.1153122614955713
21.449456,7.130784799488809,0.1149249922854079
21.45184,7.141310951615829,0.1145847051962944
21.45424,7.146482427809657,0.1143235154204619
21.456628,7.158451602175653,0.1139865826338528
21.459012,7.17028100691479,0.1136599154523792
21.461412,7.177686901280512,0.113404265386913
21.4638,7.186675587512069,0.1131460588463445
21.466184,7.196176130422825,0.1129011049099335
21.468584,7.2064680692665,0.112655541908416
21.470972,7.215689072923536,0.1124244666315794
21.473356,7.223839141393932,0.1122087379715666
21.475752,7.230965496505934,0.1119677700595514
21.478144,7.231433923072626,0.111791869748706
21.480524,7.232042119266179,0.1116091048314479
21.482924,7.236002890646509,0.1113740216949921
21.485312,7.234236899041308,0.1111954686491525
21.487696,7.233541842622745,0.1110014304034012
21.490096,7.230425376577185,0.1108526193270573
21.492484,7.220743529784934,0.1108011798522826
21.494868,7.211201452619544,0.1107428836765426
21.497264,7.199098196200294,0.1107352220820406
21.499652,7.193001242020296,0.1106575853040246
21.502036,7.190117093400213,0.1105342274510477
21.504432,7.184299678473934,0.1104425725252135
21.50682,7.174617831681683,0.1103901399317934
21.509204,7.16614668970293,0.110315637906105
21.5116,7.155952986231481,0.1102501714707708
21.513988,7.145107656453973,0.1101787464161728
21.516372,7.131608599623992,0.1101242467507966
21.518772,7.1221137442868425,0.1100235789747716
21.52116,7.112758658576555,0.1099157464762128
21.52354,7.108571257344358,0.1097808429553171
21.52594,7.112112719844106,0.1095687345982956
21.528328,7.120449779769606,0.1093129983806094
21.530712,7.12501495562775,0.1091287098967144
21.533112,7.137588534471563,0.108856317267536
21.535504,7.153374918875289,0.1085437076101948
21.53788,7.168509676972957,0.1082265267401677
21.540276,7.1882077150709005,0.1078381862473519
21.54266,7.2149829905947325,0.1073748249460262
21.54504,7.241525948693089,0.1068855122373715
21.547444,7.270071007537861,0.1063827096519988
21.549828,7.298616066382633,0.1058813091277841
21.552208,7.326649268548208,0.1053680798379737
21.554604,7.356684571460199,0.1048330776636493
21.556988,7.389001514372327,0.1042686460068456
21.559368,7.422249622844234,0.1036977058286441
21.561772,7.455777270569861,0.1031160272877848
21.56416,7.490236083855268,0.1025258006067563
21.56654,7.5196197604612,0.1019906031074175
21.568944,7.551005537813551,0.1014367268660398
21.571328,7.576664552180371,0.1009338432692949
21.573708,7.596876342815382,0.1004669539930605
21.576112,7.607776477852608,0.100069118045128
21.5785,7.619515230650997,0.0996312578287609
21.58088,7.62832071714319,0.0992242081996304
21.58328,7.630980131769272,0.0988830894058201
21.585668,7.633639546395354,0.0985424898859332
21.588048,7.637230126581215,0.0981975516650106
21.590452,7.633883238968046,0.0979173725399021
21.59284,7.630117042474297,0.0976557177998076
21.59522,7.617551047061963,0.0974686521914244
21.597624,7.608058087582684,0.0972506516255426
21.600008,7.600147919969241,0.0970329120863974
21.602388,7.591446356422881,0.0968145685797198
21.604792,7.578321282503106,0.0966513270638319
21.60718,7.56626714376997,0.0964756244767865
21.60956,7.555935566529531,0.096294278195643
21.611956,7.549608190781924,0.0960775567725062
21.614344,7.549287117273569,0.0958079279508651
21.616724,7.547895108578574,0.0955506850991316
21.619128,7.550507301376414,0.0952587423637864
21.621512,7.5627106890257565,0.0949014604468782
21.623892,7.582223631526466,0.0945059294777109
21.626288,7.603319365893011,0.09411301152801
21.628676,7.621342064326501,0.0937489853419076
21.631052,7.646302230559019,0.0933304904770717
21.633456,7.668840987164541,0.0929464120745229
21.635844,7.68602506783687,0.0926199176187869
21.638224,7.704791940375036,0.0922942054949785
21.640632,7.723558812913201,0.0919678587348301
21.643016,7.7459105780636195,0.0916227737490682
21.6454,7.761045336161289,0.0913469714540321
21.647796,7.776971490191876,0.09107375058632
21.650184,7.793409500901661,0.0908136533503345
21.652564,7.810778677171223,0.0905468321695524
21.65496,7.82479527825401,0.090320871981085
21.688392,7.768328523620973,0.090141487600722
21.690796,7.77033062436739,0.0901258251648186
21.693184,7.781412063286113,0.0900371777538507
21.695564,7.793424667764613,0.089944806341769
21.697968,7.805437272243115,0.0898524349296874
21.700356,7.821454078214449,0.0897300079180164
21.702736,7.8406836897457,0.0895757155985575
21.70514,7.864057272396644,0.0893850939338392
21.707528,7.885987832808612,0.089186619062004
21.709908,7.910200033220718,0.0889625976427166
21.712304,7.941629240685573,0.0886799398258583
21.714692,7.969566103336792,0.0884407548409697
21.717072,8.001786706734563,0.0881590195159761
21.719468,8.041875943491144,0.0878250364210736
21.721856,8.077169582821973,0.0875224012405678
21.724236,8.112602991779662,0.0872171284651725
21.726632,8.153530846297404,0.0868532271468486
21.72902,8.194738240068865,0.0864805894604225
21.7314,8.23315213716099,0.0861226558986182
21.733804,8.269191846454364,0.085763134135426
21.736192,8.3048594686954,0.0853883908021144
21.738576,8.33801313351082,0.0850194851345039
21.740972,8.36516049608699,0.084696104209144
21.74336,8.38686063493135,0.0843927603303109
21.74574,8.408980082656292,0.0840733562775947
21.748136,8.426723241836061,0.0837649187790543
21.750524,8.448610372135525,0.0834279145108394
21.752904,8.470777041688708,0.0830831147512363
21.755308,8.494945811988309,0.0827261499422578
21.757696,8.516181315981713,0.0823876489932333
21.760076,8.529176099563976,0.0820804825479432
21.762472,8.545151371280674,0.0817234792177513
21.76486,8.560195477437595,0.0813712458719662
21.76724,8.568581655049208,0.0810517277266924
21.769636,8.581391343034234,0.0806929875503306
21.772028,8.591547303966786,0.080340627480019
21.774408,8.603705365645757,0.0799786553720777
21.776804,8.616934362511364,0.0796103185025024
21.779192,8.633236395310027,0.0792225266688667
21.781572,8.65005028478789,0.0788473525945124
21.783968,8.667655570198669,0.0784766069988487
21.786356,8.681396423743474,0.0781239106444824
21.788736,8.696208212474916,0.0777627901368727
21.791132,8.714372576393135,0.077371153317864
21.793516,8.734678810684631,0.0769652302016674
21.7959,8.760572038334798,0.0765432418043575
21.798296,8.779388028559076,0.0761658621826342
21.80068,8.79406004766366,0.0758166197885084
21.80306,8.806729966021827,0.0754790995575534
21.805464,8.819399884379992,0.0751412872052575
21.807852,8.83723748721625,0.0748021367884781
21.810232,8.854516011545066,0.0744853149859947
21.812632,8.871282679194682,0.0741568013641139
21.81502,8.890051447590716,0.0738175567690508
21.8174,8.899461338560725,0.0735384550466015
21.8198,8.908731459903873,0.0732642657006877
21.822188,8.913857610127327,0.0730172513248905
21.824568,8.91176675329803,0.0728139730566694
21.826972,8.907813565349178,0.0726165804849574
21.82936,8.905210851840687,0.0724017092286879
21.83174,8.899814641652858,0.0721949688867727
21.834136,8.896932388890646,0.0719898635075025
21.836524,8.89512107131507,0.0717774636360812
21.838904,8.891260431164836,0.0716075789920802
21.841308,8.883767676574104,0.0714754501217267
21.843696,8.867055814184207,0.0713958373460858
21.846076,8.851414886980947,0.0713083363421236
21.848472,8.837776060524105,0.0712104712151459
21.85086,8.825068399627042,0.0711097991593092
21.85324,8.816225170595951,0.0709941691221039
21.85564,8.799373538579195,0.0709181122118573
21.858024,8.77944887062938,0.0708592634311372
21.860408,8.760547916037964,0.0708251840877356
21.862804,8.741367422192825,0.070800704215709
21.865188,8.732057662452913,0.0707318883420844
21.867568,8.723679068272777,0.0706604611380456
21.869972,8.716231639652419,0.0705865189720625
21.87236,8.719725880323924,0.0704614889592856
21.87474,8.724291056182068,0.0703295676927199
21.877148,8.729507858346269,0.0702060167421279
21.879532,8.737518157189806,0.0700761810729866
21.881916,8.747949865660338,0.0699227897533223
21.884312,8.757310638944233,0.0697770843878942
21.8867,8.770303526668627,0.0695957785677773
21.88908,8.785717824020015,0.0693907493190486
21.891476,8.812493099543849,0.0691238032370148
21.893864,8.839128605440822,0.0688616410772793
21.896248,8.864832945778016,0.0686020060661669
21.898644,8.894541487608043,0.0683267633443542
21.901032,8.919594201639178,0.0680632436723651
21.903412,8.951212296417005,0.0677526155690768
21.905816,8.983109930448553,0.0674310546653647
21.908204,9.013844081494844,0.0670897731563586
21.910584,9.045928706981496,0.0667333915124318
21.91298,9.07107586466912,0.0664065639451808
21.915368,9.0963627919836,0.0660758162696825
21.917752,9.120998092992028,0.0657376391951099
21.920148,9.138184069522223,0.0654174641212829
21.922536,9.155090506798702,0.0651084664457749
21.924916,9.166130411462788,0.0648195473645702
21.927316,9.172374718701128,0.0645445748678811
21.9297,9.178758795566322,0.0642666900604208
21.932084,9.18449124612546,0.0639811344760896
21.93448,9.18822159593818,0.0637047562538582
21.936868,9.19237125463148,0.0634153474621632
21.939248,9.188652279965977,0.0631541257862778
21.941648,9.188425650114109,0.0628654389122586
21.944036,9.191551595449011,0.0625543731137818
21.946428,9.186808907425112,0.0622690559427966
21.948832,9.187001586453825,0.0619679437913648
21.95122,9.186914726228814,0.0616770325741669
21.9536,9.19083206749664,0.0613718849064041
21.956,9.19768267507066,0.0610592117632272
21.958388,9.20346234745804,0.0607532407869901
21.960768,9.212594595032195,0.0604245984836965
21.963164,9.221726842606357,0.0600965219462077
21.965552,9.228996759060951,0.0597700196606219
21.967932,9.23691830182161,0.0594510343834759
21.970328,9.241766808649215,0.0591445442970541
21.972716,9.25183022178315,0.0588132643057089
21.975096,9.26454736196956,0.058482437758728
21.977492,9.272980761409414,0.0581751493274439
21.97988,9.28099485196869,0.0578814821371381
21.982264,9.290871273647523,0.0575868224670825
21.984668,9.296975811259,0.0573275223739118
21.987052,9.307736176669364,0.0570638987596109
21.989436,9.313653722825736,0.0568411155566048
21.991832,9.315939154541612,0.0566491090681009
21.99422,9.32222878775032,0.0564435940564163
21.996604,9.32195304021234,0.056275744583741
21.999,9.32046658786086,0.0561181652134073
22.001388,9.319771531442298,0.0559651419632464
22.003768,9.31451319502346,0.0558426409352075
22.006164,9.30883554972404,0.0557336483499563
22.008552,9.305811631477098,0.0556270091424917
22.010936,9.301297469162936,0.0555390049646708
22.01334,9.303021926513502,0.0554546723642097
22.015728,9.308331276476322,0.0553720519955651
22.018108,9.314711561625778,0.0552839850695422
22.020504,9.320532768267794,0.0552141320863514
22.022892,9.32742491009645,0.0551393008438314
22.025276,9.339112649350856,0.055056751264826
