Time,Force,Position
20.655612,4.266556917948996,0.1557212667881631
20.736844,5.022471870844199,0.1555530712205276
20.739224,5.040114898793875,0.1554196129926262
20.74162,5.069583539766948,0.1550701367985858
20.744004,5.104778943725552,0.1545893704721676
20.746384,5.140393656564736,0.1540774943421073
20.748784,5.184156542016448,0.1533884358226368
20.751168,5.225637787468022,0.152780686135263
20.753564,5.27233393922593,0.1520442891635105
20.75596,5.323593370984111,0.1511680318533036
20.758348,5.376250499010894,0.15019215780712
20.760728,5.42280877699981,0.1493264822598228
20.763124,5.465782162376473,0.1485341289456491
20.765512,5.516437189656841,0.147622151848843
20.767896,5.567324534362684,0.1467588145208291
20.770292,5.614766756083134,0.1459536504016717
20.77268,5.656249897392579,0.1452276210739607
20.77506,5.702760953553252,0.1444537407681635
20.777456,5.742706628967233,0.1438602985312682
20.779844,5.779439498821299,0.1433439576849514
20.782228,5.819292626436663,0.1427088486310346
20.784624,5.861474615880408,0.1419617353911553
20.787012,5.888431195285737,0.1415542294760509
20.789408,5.912035199504289,0.1412405992404939
20.791804,5.937408987043781,0.14086087870806
20.794188,5.962038600478598,0.1404406378251788
20.796568,5.973631896076519,0.1402352583180057
20.798964,5.984433795741521,0.1400366519011309
20.801356,5.996399178391778,0.1398583415056264
20.803732,6.007945252161456,0.1397087171445543
20.806128,6.016790377050415,0.1396417165067841
20.808512,6.024704336379596,0.1395884165289088
20.810908,6.034201087574614,0.1395251231369442
20.813312,6.044629004329408,0.1394487516287912
20.815696000000003,6.052403194031729,0.1394060538737996
20.818076,6.059013900748795,0.139347217010195
20.82048,6.066183685973302,0.1392517221602655
20.822864000000003,6.068185786719718,0.139214983025991
20.825244,6.07419208895897,0.1391051436579581
20.827648,6.082480031198358,0.1389403434113282
20.830036,6.088905642318188,0.1388049585120263
20.832416,6.096262418997798,0.1386582797548718
20.83482,6.107111540491044,0.1384231838492726
20.837204,6.113165064558538,0.1382651193868588
20.839584,6.119590675678369,0.1381308872995794
20.841976000000003,6.122012085305366,0.1380685086247369
20.844364,6.126575365305641,0.1379596319932318
20.846744,6.130998875679054,0.1378598543756319
20.84914,6.1344912204926905,0.1377753102535732
20.851524,6.139753348627267,0.1376264649363772
20.85392,6.141338036350972,0.1374826120346411
20.856324,6.142410867395481,0.1373254301904081
20.858712,6.1361741435886215,0.1372701357918884
20.861092,6.12649229679637,0.1372527929329702
20.863496,6.118952320377395,0.137189634524711
20.86588,6.114066071010895,0.1370933441438847
20.86826,6.110902383137092,0.136978146812553
20.870664,6.110252652688903,0.1368398719521648
20.873052,6.109602922240715,0.1367027693204417
20.875432,6.10737039992669,0.13657483904206
20.880224,6.088937871901966,0.136519515128596
20.882604,6.082840917721968,0.1364533353179225
20.884996,6.0842405098484384,0.1362340739459971
20.887384,6.081543352683459,0.136046660596868
20.889764,6.083222484063651,0.1358101213183379
20.892168,6.088346738429236,0.1355382401151532
20.894552,6.091608661675264,0.1352922502205779
20.896936,6.091844770816479,0.1350567938217939
20.899336,6.083001541785388,0.1349816468771507
20.901724,6.084121594658139,0.134779146658132
20.904104,6.087336296075924,0.1345801143313509
20.906508,6.100421731598933,0.1342149748194741
20.908896,6.116999511935578,0.1337697205705107
20.911276,6.131994500406387,0.1333357967937107
20.913672,6.1424262088769215,0.1330040919358251
20.91606,6.154440709213292,0.1326652463225944
20.91844,6.164220791377769,0.1323328133534283
20.920836,6.170975059437432,0.1320107968121063
20.92322,6.181174450482488,0.1316566676671809
20.9256,6.1890449796991645,0.1313946757572516
20.928,6.205994847088148,0.130975234428698
20.930388,6.216706094812401,0.13063246148344
20.932768,6.2244840762304605,0.1303400909964489
20.935164,6.234636245447274,0.1300368459903375
20.937552,6.240923982798115,0.1297899567640889
20.939936,6.245628928283119,0.129551665570051
20.942332,6.25382621858176,0.1292357454420341
20.94472,6.259741868880262,0.1289678107214842
20.947104,6.272827304403271,0.1286142610640704
20.9495,6.276693632127113,0.1284239104056951
20.951888,6.283260908731673,0.1281600477214357
20.954268,6.286383062350842,0.1279312859677298
20.956664,6.287223575969872,0.1277521937759404
20.959052,6.287085702200882,0.1276305302413787
20.961432,6.291371338805304,0.1274197653039727
20.963836,6.293562326864693,0.1272036462453774
20.966224,6.294682379737445,0.1270074053058043
20.968604,6.296965915595451,0.1268293625611714
20.971008,6.299249451453459,0.1266528090680103
20.973392,6.310240238431433,0.126309185810622
20.975772,6.3133623920506015,0.1260837599343932
20.978168,6.319278042349104,0.125825010959408
20.980556,6.321049721527912,0.1256356757827054
20.98294,6.3186774295870265,0.1255160358625472
20.985336,6.321240504698753,0.1253227188736139
20.98772,6.324083119064201,0.1251133539944652
20.990104,6.323852697496593,0.1249548190989859
20.9925,6.330280204474295,0.1247100287909699
20.994884,6.338989351452132,0.1244209182419034
20.99728,6.353053174363161,0.1240333764565935
20.999676,6.363252565408219,0.1237010773414474
21.002064,6.372892877945835,0.1234029857124831
21.004444,6.381974111976012,0.123136981429141
21.006836,6.394547690819822,0.1227989985099894
21.009224,6.404839629663495,0.1225073876657059
21.011604,6.414432720372869,0.1222552152868936
21.014,6.424956976642021,0.1219919966696629
21.016388,6.433898441045336,0.1217348103222923
21.018772,6.4420485095157325,0.1214827424969547
21.021168,6.4477771683591305,0.1212857859240888
21.023556,6.457510028695365,0.1210303853254947
21.025952,6.463378457165624,0.1208253461008229
21.028348,6.474322022315357,0.1205441875461655
21.030736,6.488198853771283,0.1202213553780736
21.033116,6.500864980413711,0.1199273440661814
21.035516,6.514042963735336,0.1196478262618542
21.037904,6.530293982990018,0.1193231349065778
21.040284,6.542680570378725,0.119050546598957
21.04268,6.552273661088098,0.1188105582385897
21.045068,6.560795816610833,0.1185891947038675
21.047448,6.571180303253124,0.1183486272094622
21.049844,6.579981998029579,0.1181127747802844
21.052236,6.588411605753697,0.1178555661512911
21.054616,6.591626307171482,0.1176784510659932
21.057016,6.598705440455239,0.117455038674498
21.0594,6.611930645605107,0.1171449007933622
21.06178,6.62329351963542,0.116853401035463
21.064184,6.636099415904709,0.1165655608737879
21.066568,6.649277399226333,0.1163006501355977
21.068952,6.661663986615042,0.1160385021537656
21.071348,6.674562430682948,0.1157912927963032
21.073736,6.692116702549745,0.1154978384978633
21.076116,6.709391435162821,0.1152229128935828
21.078512,6.730670369268731,0.1148994671216581
21.0809,6.750086972255086,0.1145943546495579
21.083296,6.770714280054938,0.1142680260107344
21.085688,6.79106204860107,0.1139603041659703
21.088076,6.812061443453261,0.1136589474016066
21.09046,6.83157059423823,0.1133950373732584
21.092856,6.852802306515898,0.1131221640493418
21.09524,6.873754479539844,0.1128656214103793
21.09762,6.89507873961613,0.1126286875939898
21.100024,6.919848122677807,0.1123729617727821
21.102412,6.950763577605595,0.1120365207274388
21.104792,6.976883435107631,0.1117520471940121
21.107192,6.99471535037028,0.1115812022099711
21.109576,7.0192051941782365,0.1113454960664721
21.11196,7.047047613172969,0.1110598448702994
21.114356,7.071305139555449,0.1108004490299157
21.116744,7.0975647666843455,0.1105194585415436
21.119124,7.122381371574265,0.110235617854098
21.12152,7.143473314225073,0.1099865710136847
21.123908,7.1634943216892415,0.109754586293029
21.1263,7.178719731727658,0.1095720006118606
21.128704,7.199160048072407,0.1093241762783607
21.131092,7.215316623670601,0.1091356086026447
21.133472,7.230402264082158,0.108963192274438
21.135876,7.244836278187655,0.1087853218600453
21.13826,7.263554033039709,0.1085497682652119
21.14064,7.2845534278918995,0.1082823028312111
21.143044,7.305552822744089,0.1080159558011709
21.145432,7.330975727969693,0.1076884629545266
21.147812,7.354955610956322,0.1073594580686236
21.150208,7.376653853942814,0.1070683252843411
21.152596000000003,7.403147694355057,0.1067349130668257
21.154976,7.4349962107004925,0.1063307818448997
21.157376,7.460978194433538,0.1059872570184708
21.159764000000003,7.481885041487111,0.1057019631877932
21.162144,7.503723054100461,0.1054077990107531
21.164544,7.523419196340535,0.1051426105093314
21.166932000000003,7.543766964886668,0.1048842792138585
21.169312,7.565697525298636,0.104624739232525
21.171716,7.586976459404545,0.1043602912383009
21.174104,7.611980055749571,0.1040692527921496
21.176484,7.6328396809749,0.1038287905554266
21.17888,7.656120715827227,0.1035477146058907
21.181268,7.67674802362708,0.1032807359824942
21.183648,7.696583935494014,0.1030144049668353
21.186052,7.714697285868252,0.1027584220652185
21.188436,7.726012938070321,0.1025637995382192
21.190816,7.734954402473636,0.10237033676499
21.19322,7.736958399077921,0.1022434885064834
21.195608,7.736960294935791,0.1021364888027721
21.197988,7.736590103741323,0.1020109785665303
21.200384,7.734916659934739,0.1018740238307152
21.202768,7.732451820195236,0.1017377262461681
21.205148,7.732268620455872,0.101570004356155
21.207556,7.733435895156867,0.1013770991703269
21.20994,7.740097615417912,0.1011166781872941
21.21232,7.748389349373039,0.100820009994556
21.214724,7.757240161835605,0.100500033535168
21.217112,7.76772098799225,0.1001450832595645
21.219492,7.776199713402481,0.0998078628434133
21.221892,7.778300049521124,0.0995068915829278
21.224276,7.779608989706848,0.0992056735725725
21.226656,7.783990965825625,0.0988758608919802
21.229052,7.788652481198126,0.0985324717808918
21.23144,7.797178428436598,0.0981606818148794
21.23382,7.801700174182239,0.0978242740456749
21.23622,7.810086351793851,0.0974575009228735
21.238604,7.823128357204355,0.0970627126861964
21.240984,7.837381067428358,0.096647237438285
21.243392,7.853496108771916,0.096220732374751
21.245776,7.86611880530184,0.0958413617298911
21.24816,7.875388926644989,0.0955045717663317
21.250552,7.882796716868579,0.0951801930782834
21.25294,7.886060535972475,0.094896886549289
21.25532,7.889184585449513,0.0946200824725163
21.257716,7.883741153433442,0.0944382411763902
21.260104,7.875596772536652,0.0943043429286949
21.262488,7.865310521266586,0.0941936597669526
21.264884,7.849949133317048,0.0941289303608466
21.267268,7.8365898461139265,0.0940466179655821
21.269652,7.827746617082836,0.0939420033995133
21.272048,7.820486179917582,0.0938382843590362
21.274436,7.808010836445996,0.0937866832574721
21.27682,7.7980494504000255,0.0937303033146415
21.279216,7.783152697301442,0.093713304775273
21.2816,7.77305154162861,0.0936625279852914
21.291164,7.713929164085229,0.0936392964013343
21.29356,7.704339865091594,0.0936003637905042
21.295948000000003,7.695402192404018,0.0935682143098034
21.298328,7.685905441209001,0.0935602953124618
21.300724,7.683346157813012,0.0934962588357596
21.303112,7.680507335163303,0.0934443212628142
21.305492,7.685816685126121,0.0933192480656311
21.307892,7.692476509529297,0.0931705025345524
21.310276,7.700858895425172,0.0930173713681812
21.31266,7.713897109119937,0.0928374960583112
21.315064,7.7305202154269566,0.0926441884561513
21.317452,7.7482142569206145,0.0924411860614034
21.319832,7.764185736921576,0.0922427619216919
21.322228000000003,7.781228152109176,0.0920322261448642
21.324616,7.797991028043055,0.0918344120175217
21.326996,7.815405530282993,0.0916423569601786
21.329392,7.829746996589875,0.0914786310988359
21.33178,7.845671254762592,0.0913168061794922
21.334176,7.864808318495226,0.0911215656841301
21.336572,7.8860872526011345,0.0909063243333954
21.33896,7.90578339484121,0.0906885905858014
21.341344,7.92147533558845,0.0905045837697158
21.34374,7.939448916335827,0.0902927360459889
21.346128,7.96077507226998,0.0900427018087401
21.348508,7.978888422644219,0.0898279863215587
21.350904,7.998352247458815,0.0895915758800746
21.353292,8.011158143728103,0.0893964306328052
21.355676000000003,8.023964039997391,0.0892017988862279
21.358072,8.03690970589354,0.0890023235110561
21.36046,8.051205846230049,0.0887829679753321
21.362844000000003,8.060194532461606,0.0885811809470962
21.365248,8.06624995238697,0.0883995445141362
21.367632,8.073236537872111,0.0882132110767654
21.370012000000003,8.083296159290308,0.088002294207018
21.372412,8.094985794402584,0.0877595320091811
21.3748,8.111238709515135,0.0874659480387789
21.377180000000003,8.129913034254681,0.0871414029682301
21.379584,8.153150638994504,0.0867696032090622
21.381972,8.177039870040385,0.0864072222884319
21.384352,8.199858165899627,0.0860583581370812
21.386748,8.225889267318784,0.085680819600156
21.389136,8.253922469484358,0.0852901017419225
21.391516,8.281024506090153,0.0849051046944552
21.393912,8.303842801949397,0.084559187759158
21.3963,8.327220176316079,0.0841930612148493
21.398684,8.349526615496123,0.0838380473084204
21.40108,8.374486781728642,0.0834755571011209
21.403468,8.402380214267357,0.0830983497494542
21.405848,8.430553186059791,0.0827127905164139
21.408244,8.45458218673253,0.0823613378686216
21.410632,8.484198180763942,0.08198929354339
21.413012,8.51502487960885,0.0816030895679913
21.415408,8.549343923267395,0.0811822806708983
21.417796000000003,8.583662966925944,0.0807656102720003
21.420192,8.613838039464795,0.0803808714722532
21.422592,8.64187124163037,0.0800179648433122
21.424976,8.668553969355584,0.0796760523313207
21.42736,8.686808985214553,0.0794005043041905
21.429756,8.702550043647905,0.0791256782076639
21.432144,8.715637375028782,0.0788567712382968
21.434528,8.732449368648773,0.0785777621377967
21.436924,8.748469966335847,0.0782979083465391
21.439316,8.766492664769338,0.0780079317060034
21.441696,8.787216312083546,0.0776805637090933
21.444092,8.8048669234647,0.0773735741731553
21.44648,8.823448700405631,0.0770644568051984
21.44886,8.84338095178692,0.0767380806656607
21.451264,8.860100397608294,0.0764378846649682
21.453652,8.87439843380267,0.0761646583919281
21.456032,8.888976009250769,0.0758810793081739
21.458436,8.897826821713338,0.0756217290444186
21.46082,8.904535763802626,0.075378200499725
21.463204,8.905610490705005,0.075185344029229
21.4656,8.903612181674324,0.0750115938722632
21.467984,8.907480405256035,0.0748110873796845
21.470364,8.910137924024248,0.0746238761411244
21.472764,8.912935212419322,0.0744317850927014
21.475148,8.919224845628033,0.0742056476833429
21.477528,8.927097270702578,0.0739842590546061
21.479928,8.934969695777124,0.0737628330080867
21.482316,8.933762782679363,0.0735916122377506
21.484696,8.930134459954607,0.073445627822284
21.487092,8.921570770177237,0.0733231436752334
21.48948,8.91538126819862,0.0732077451561031
21.491860000000003,8.908912226966283,0.0731019217464002
21.494256,8.90137225054731,0.0730037809480429
21.496644,8.89047969894156,0.0729333490466984
21.49904,8.877073189910197,0.0728605850123083
21.501436,8.86487738569233,0.072774991267847
21.503824,8.854404142967159,0.0726889169653261
21.506204,8.847655562481103,0.0725923295324985
21.5086,8.84491118348788,0.0724754203334666
21.510988,8.846450545241211,0.0723283523272199
21.513368,8.85027154699468,0.0721614469164015
21.515768,8.846503454643061,0.0720197091610646
21.518156,8.841943966358526,0.0718753420981191
21.520536,8.840457514007046,0.0717141753766917
21.52294,8.838411983148125,0.0715728517973422
21.525328,8.834783660423367,0.0714264731750054
21.527708,8.82980486325825,0.0712969079530834
21.530112000000003,8.831111907586106,0.0711280130339134
21.5325,8.839775728593569,0.0709137644735658
21.53488,8.853374916653644,0.0706780614778261
21.537276,8.865391312847885,0.0704389037783708
21.539664,8.882762384975317,0.070164821507144
21.542044,8.90055276598333,0.0698767716626159
21.544448000000003,8.921416182924398,0.0695722156224861
21.546836,8.945352635798518,0.0692511065452435
21.549216,8.970499793486141,0.0689195324601661
21.551612,8.995786720800623,0.0685848382394029
21.554,9.018419921062632,0.0682529592279776
21.556384,9.038259624645306,0.0679287141662283
21.55878,9.053443500429086,0.0676152126669971
21.561168,9.066485505839593,0.0673161327273191
21.563548,9.083391943116068,0.0670034766520779
21.565948,9.101369315579184,0.0666843504476358
21.568336,9.114411320989689,0.0663857773386728
21.570716,9.126150073788075,0.0660715486700001
21.573112,9.137888826586464,0.0657572902316566
21.575496,9.155913420877829,0.0654090662556195
21.57788,9.170073583303214,0.0650740024273095
21.580276,9.179577917929707,0.06475082499973
21.58266,9.184426424757309,0.0644365158460755
21.585044,9.186062126024996,0.064141581565923
21.58744,9.184764560986489,0.0638576808268464
21.589824,9.181464895201565,0.0635814023503349
21.59222,9.179375934230135,0.0632951407811163
21.594616,9.179149304378267,0.0630066638198081
21.597004,9.178782904899538,0.0627237193027389
21.599388,9.175623008741471,0.0624451094272906
21.601792,9.173254508516326,0.0621695663274881
21.604176,9.17689231053043,0.0618732417764243
21.606556,9.185325709970288,0.0615656676675541
21.608956,9.1956214405297,0.0612557703942381
21.61134,9.20698810627575,0.0609409856771654
21.61372,9.214490340155828,0.0606351484413959
21.61612,9.22506560996896,0.0603165080790535
21.618504,9.238294606834566,0.0599991355339106
21.620884,9.25417733075265,0.0596836257063975
21.623288,9.264053752431485,0.059390372540234
21.625676,9.277654836349427,0.0590931170627698
21.628056,9.28590124433418,0.0588233438075148
21.630452,9.30187651605088,0.0585369966488703
21.63284,9.319853888513997,0.0582436870641863
21.635224,9.336341016909891,0.0579698905645654
21.63762,9.357623742731542,0.0576875588935157
21.640004,9.37411087112744,0.0574154652689888
21.642384,9.386593798030502,0.0571570188749643
21.644784,9.396422997881093,0.056897266909949
21.647168,9.408254298478097,0.0566312525908885
21.649564,9.418223267955543,0.0563668485127283
21.651964,9.415108697767852,0.0561450577609718
21.654348,9.409060861273968,0.0559306143246616
21.656732,9.402501168100883,0.0557036726862894
21.659128000000003,9.39487053974116,0.0554822184502886
21.661516,9.396179479926884,0.05523654996558
21.6639,9.393484218619776,0.05500239655451
21.666296000000003,9.390928726939524,0.054764399026452
21.668684,9.385999047460524,0.0545153478065161
21.671068,9.381069367981516,0.0542653738220559
21.673464000000003,9.374556896636676,0.0540082746897345
21.675852,9.376192597904362,0.0537240405561179
21.678232,9.37075106174616,0.0534623287701243
21.680632,9.363866503348982,0.0531879320139902
21.683016,9.359403354578802,0.0528949535680087
21.6854,9.348933903569373,0.0526180453171204
21.687796,9.34526215073211,0.0523296185953159
21.690184,9.343452729014402,0.0520399153852616
21.692564,9.34387772546859,0.0517664771222485
21.69496,9.340810377109143,0.0515155189756233
21.697348,9.338813963936332,0.0512591610232616
21.699728,9.346688284868751,0.0509800100013194
21.702128,9.35628516729386,0.0507050090225252
21.704512,9.361318769718698,0.0504571888461802
21.706912000000003,9.364350271397118,0.0502142178809337
21.709304,9.358954061209287,0.0500051717305364
21.711692,9.358353448447213,0.0497902704744061
21.714076,9.354540030125222,0.0495892602866869
