Time,Force,Position
23.743272,3.003680023264989,0.1687953322396542
23.74566,3.160308341717971,0.1687935069801746
23.74804,3.3211769708050016,0.1679572374372594
23.750436,3.4739956626517285,0.1666236557270039
23.752828,3.613269971698101,0.1653752403046598
23.755208,3.7457031524598,0.164124431484771
23.757604,3.875764041280613,0.1627520118826473
23.759992,4.003499859988784,0.1611581589838066
23.762376,4.1221601322403885,0.159476286097477
23.764772,4.222153663183922,0.1580484262428145
23.76716,4.308089058790032,0.1568530559294013
23.769544,4.378708392416978,0.1559880173305388
23.77194,4.448585447797118,0.1549013057900217
23.774328,4.511621374892584,0.1536738653824658
23.836448,4.509012973810484,0.1533701198970026
23.838836,4.523303426573384,0.1533288883428645
23.84122,4.543320642321814,0.1531526865536104
23.843616,4.57227742661569,0.1527471706759006
23.846004,4.599651419043729,0.1523704723325908
23.848388,4.628515655538988,0.1519234703627845
23.850784,4.654586395354912,0.1515257362825823
23.853172,4.681495752931997,0.151051059813174
23.855552,4.706962088270106,0.1505839835012504
23.857952,4.731357488421576,0.1501545126098557
23.86034,4.755985205998523,0.1497711448143614
23.862724,4.788202017680558,0.1492155447106851
23.86512,4.822281160482149,0.1486226859397825
23.867508,4.860224735149714,0.1479457638256926
23.869892,4.897609231309837,0.1473316168230176
23.872288,4.931501382656325,0.1468497008302455
23.874676,4.966883778070032,0.1463111974889492
23.87706,4.99723825863251,0.1458328282224835
23.879456,5.023495989903537,0.1454102113964852
23.881844,5.048590238189309,0.1449792281732171
23.884228,5.073591938676463,0.1445014043660706
23.886624,5.096638760245443,0.1440170063391521
23.889016,5.116008141403554,0.1435529604357243
23.8914,5.12713680215052,0.1432404824012995
23.893796,5.137985923643765,0.1429528808607315
23.896188,5.152699477002984,0.1425917445418132
23.898572,5.173419332601454,0.1420952209296435
23.900968,5.1969326848792585,0.1415518283677543
23.903356,5.218816023462984,0.1410731783893381
23.90574,5.242421923539405,0.1405757736234774
23.90814,5.264165492496271,0.1401140952918262
23.910528,5.279670441788408,0.1397518848587108
23.960692,5.165348715543078,0.1396440450237788
23.963076,5.160927101027533,0.1396032404875808
23.965472,5.157436652071767,0.1395463373953811
23.96786,5.155668764608697,0.1394677299882281
23.970244,5.160139496810353,0.139297429490641
23.972644,5.167636043116823,0.1391151221589632
23.975032,5.1737821149829335,0.1389811435578393
23.977412,5.180627034983346,0.1387977495818077
23.979812,5.19240732203637,0.138522401997748
23.982196,5.20698110576873,0.1382012624537812
23.98458,5.228073048419536,0.1377675546999953
23.986976,5.252517566257119,0.1372509933518942
23.98936,5.274448126669086,0.1367591966088857
23.991744,5.294888443013835,0.1363168675164726
23.99414,5.317283638276758,0.1358848010991348
23.996528,5.340050920592018,0.1354710120575384
23.998908,5.363330059586477,0.1350765998526433
24.001304,5.384607097834518,0.1347254864339364
24.003692,5.400529460149366,0.1345062742915742
24.006076,5.417382988023994,0.1342731718681107
24.008472,5.435307451085259,0.1340170804655949
24.01086,5.45085772634777,0.1337775604793467
24.013244,5.463894044184666,0.1335653181553168
24.01564,5.47455617422281,0.1333694603614988
24.018028,5.483915051648836,0.133166343922607
24.020412,5.492389985343326,0.1329269882368088
24.022812,5.4976993353061445,0.1327074078785463
24.0252,5.503148454895824,0.1324799330540394
24.02758,5.501520337059613,0.1323928880989955
24.029976,5.499752449596543,0.1323156073467024
24.032364,5.50040597176047,0.1321733568551074
24.034748,5.498265997245063,0.1320729958600019
24.037144,5.500921620155408,0.1318954891569792
24.039532,5.509443775678141,0.1316177771782474
24.041916,5.523320607134068,0.1312305157860061
24.044316,5.5431111930306285,0.1306974541765792
24.046704,5.558665260008877,0.1302022442110907
24.049084,5.573148391800489,0.1297264937122058
24.05148,5.591775494711793,0.1291707405086054
24.053868,5.611473532809736,0.1285979998963924
24.056252,5.629728548668704,0.1280280388062203
24.058648,5.64905449971431,0.1274358789178047
24.06104,5.668240681133056,0.1268514263042236
24.06342,5.688590345537056,0.1262853245109191
24.06582,5.711174428112952,0.1257230826132576
24.068208,5.735341302554684,0.1251622675853226
24.070588,5.759508176996414,0.124597732513082
24.072988,5.7823245769977865,0.1240759586564776
24.075376,5.806491451439518,0.1235116430565754
24.077756,5.828284138082497,0.1229581810029965
24.080152,5.841836104314329,0.1225099895770981
24.082544,5.85780948017316,0.1220049775198877
24.084928,5.870197963419739,0.121544069966128
24.087324,5.882354129240837,0.1210579838328941
24.089712,5.885058869837295,0.1207001415909322
24.092096,5.881617538567641,0.1204488647362935
24.17574,5.673399235558775,0.1203069143994841
24.178124,5.683687382686711,0.1202741609478577
24.18052,5.69811950093434,0.1201708703919641
24.182908,5.71325046731627,0.120022231711752
24.185292,5.730523304071476,0.119835365627448
24.187688,5.751381033438938,0.119613416234267
24.19008,5.783971828031179,0.1192282986819741
24.19246,5.818424953742976,0.1188235968176274
24.19486,5.851807144268137,0.1184428554532345
24.197248,5.889705392965327,0.1180221270476154
24.199632,5.933470174274908,0.1175290631169329
24.202028,5.976303790024712,0.1170496494711014
24.20442,6.017275074654958,0.1165968733582191
24.206804,6.062530100031758,0.1160739392821731
24.2092,6.109694678356358,0.1154803819310489
24.211592,6.157930191867597,0.1148791355700961
24.213976,6.20323243907264,0.1143204303708646
24.216392,6.251375404785262,0.113693537457477
24.21878,6.302870945684659,0.1130077456695842
24.221164,6.355856730651276,0.1122870653966105
24.223564,6.40390714856528,0.1116431068307168
24.225964,6.448512443493892,0.1110292998657093
24.228348,6.48925330655653,0.110464527440828
24.230744,6.53478976704492,0.1098518963630115
24.233128,6.5807455364138905,0.1092273292286348
24.235508,6.625258283543884,0.1086044651637418
24.237924,6.660971231755292,0.1080946696243642
24.240312,6.6991055895937,0.1075472388608864
24.242692,6.733282967767516,0.1070042414868162
24.245088,6.76266474851558,0.1065146222719516
24.247476,6.785668139972056,0.1060815883381833
24.249856,6.807228509189556,0.1056432880416509
24.252256,6.8290684176607765,0.1051927864923572
24.25464,6.847555750945221,0.1047986194970918
24.257024,6.868696811282141,0.1043916403563956
24.25942,6.887835770872643,0.1040114398362604
24.261808,6.909628457515621,0.1036161701557676
24.264188,6.927789029718101,0.103289839806148
24.266584,6.94632168897292,0.1029877822241223
24.268972,6.9637834130411,0.1027031149117002
24.271352,6.978311870803084,0.1024462500274391
24.273752,6.991769393378431,0.1022038906067627
24.27614,7.008439721513693,0.1019195257498664
24.27852,7.020174682596343,0.1016875350246616
24.280916,7.028976377372797,0.101486008024524
24.283304,7.036846906589473,0.1012924347167303
24.285688,7.0448572054330105,0.1010914091300454
24.288084,7.048723533156853,0.1009408295432823
24.290476,7.059108019799145,0.1007425125370794
24.292856,7.069632276068296,0.1005367766424391
24.295252,7.082810259389922,0.1003179742870397
24.297644,7.098502200137163,0.1000929510267326
24.300024,7.112331809764847,0.099882341080117
24.30242,7.125370023459611,0.0996711890638921
24.304808,7.13654590603482,0.0994757586553909
24.307192,7.145859457490473,0.0992940304223694
24.309588,7.15265905152051,0.099119420924222
24.31198,7.158946788871351,0.0989310903375703
24.31436,7.161137776930741,0.0987495537715982
24.316756,7.1610471249899925,0.0986014597727209
24.319148,7.16388973935544,0.0984260827294577
24.321528,7.167663519280666,0.0982439102108391
24.323924,7.166082623272699,0.0981286473005754
24.326312,7.1645017272647324,0.0980131112802441
24.362164,6.946867845712252,0.0979636746653084
24.364544,6.932250631867388,0.0979376505258692
24.36694,6.920054827649522,0.0978705977712443
24.369328,6.908929958618294,0.0977900601108958
24.371712,6.905581175147256,0.0976041935996348
24.374108,6.906655902049634,0.0973603077369191
24.376492,6.910431577832729,0.0970630360192137
24.378876,6.918490994362378,0.0967154881681963
24.381272,6.927202037198085,0.0963762633628551
24.38366,6.940057051153486,0.0959918380161832
24.38604,6.955705561788221,0.0955892284669575
24.388436,6.970143367609459,0.0952059147849729
24.390824,6.988305835669809,0.0947977481143939
24.393208,7.01126390115591,0.0943530101098244
24.395604,7.035292901828651,0.0938972299449256
24.397996,7.06039283768803,0.0934334701634504
24.400376,7.087634643920687,0.0929459384651555
24.402772,7.119439730153617,0.0923992920495774
24.405164,7.155668326759963,0.0917984861788843
24.407544,7.195761355232282,0.0911725605495884
24.40994,7.234783448517962,0.0905592687775447
24.412328,7.268870174751029,0.0899912159776598
24.414712,7.299604325797323,0.0894693797503879
24.417108,7.328476145724058,0.0889600620715023
24.419496,7.347569779344186,0.0885653786500225
24.42188,7.360377571471345,0.088236652850356
24.424276,7.37276605471792,0.0879281957890336
24.426664,7.38301266759122,0.0876459536166799
24.429048,7.391536718971825,0.0873681342422969
24.431448,7.400852166285346,0.0870934440956262
24.433836,7.409096678412229,0.0868309771703357
24.43622,7.41976260016611,0.086533599102278
24.438616,7.427355485986935,0.0862638232231888
24.441004,7.4328065014344835,0.0860178423058753
24.443384,7.434253315389198,0.0858038574491096
24.44578,7.432347554157137,0.0856303170376903
24.448172,7.4282999225517985,0.0854791827494423
24.460116,7.351300303775395,0.0854187932610102
24.462508,7.3408723870206,0.0854050587484409
24.464888,7.332167031758501,0.0853879679699966
24.467288,7.332680784295569,0.0852915962281831
24.469676,7.340271774258525,0.0851382736275016
24.472056,7.344929497915286,0.0850044990478556
24.474456,7.346374416012132,0.084903237766773
24.476844,7.347400025228396,0.0848204697379308
24.479224,7.343350497765188,0.0847797100657221
24.484012,7.332131185077474,0.0847636121805959
24.486392,7.33003653653244,0.0847463094161221
24.488788,7.328873053547184,0.0847243943383946
24.491176,7.336649139107374,0.0846370593319694
24.493556,7.348429426160397,0.0845199184178429
24.495956,7.361932274706117,0.0844000971373259
24.498344,7.381301655864228,0.0842400196327739
24.500728,7.400671037022339,0.0840799421282218
24.503124,7.422182288553726,0.0838977068114931
24.505512,7.440620504152059,0.0837422156906206
24.507896,7.461480129377389,0.0835540523356388
24.510292,7.475542056430551,0.0834098636531219
24.51268,7.489743753110572,0.0832604941707561
24.515064,7.50008101792462,0.0831363279133377
24.51746,7.505063606805476,0.0830647539753605
24.519852,7.516983663485361,0.0829456765496646
24.522232,7.5319767560983,0.0828015306390115
24.524632,7.55311592057735,0.0826094640398621
24.52702,7.577328120989456,0.0823915406910387
24.5294,7.6039617310285585,0.0821423809539423
24.5318,7.6358102473739935,0.0818502674637983
24.534188,7.665144806293814,0.0815613287802659
24.536568,7.696621235586911,0.0812556038426806
24.538968,7.721020427454121,0.081004865341434
24.541356,7.742626122641995,0.0807679578127222
24.543736,7.762649025964032,0.0805275162565507
24.546136,7.7832310077935105,0.0802661895603758
24.548524,7.806094629623127,0.0799814257272053
24.550904,7.83123989145288,0.0796739650417446
24.553304,7.85866679328277,0.0793425906807727
24.555688,7.885162529552882,0.0790179314783197
24.558072,7.918875272875743,0.0786408135529665
24.560468,7.950865454705909,0.0782666781171143
24.562856,7.985788902842269,0.0778795603352153
24.56524,8.024344465419125,0.077449957561243
24.567636,8.062108632063063,0.077025168713854
24.570028,8.100292107587583,0.0765866423320132
24.572408,8.132097193820513,0.0761696642610662
24.574808,8.164181819307164,0.0757427983320263
24.577196,8.194404113674258,0.075325218237803
24.579576,8.217828709869185,0.0749421099549306
24.581976,8.245117737930084,0.0745450355128466
24.584364,8.265609067818813,0.0741803991864799
24.586748,8.285588541028346,0.0738015622682437
24.589144,8.303565913491465,0.0734337745422582
24.591532,8.323545386700996,0.0730555106138581
24.593916,8.341522759164112,0.0726908658100696
24.596316,8.356846404574755,0.072331127465443
24.598704,8.36988840998526,0.0719948467151766
24.601084,8.381859480209126,0.0716678192961266
24.603484,8.391968219313434,0.0713470379247539
24.605872,8.395139490618714,0.0710620118803228
24.608256,8.404177294536384,0.0707526188829929
24.610652,8.405486234722106,0.070474246356758
24.613044,8.402371664534417,0.0702328003679412
24.615424,8.392179856920837,0.0700300483936212
24.617824,8.377844078187563,0.0698526613178691
24.620212,8.364951321693265,0.0696855537346908
24.622596,8.35699393225158,0.0694961978434831
24.625016,8.347034442063476,0.0693164121844583
24.627404,8.34000821818157,0.0691235744623824
24.629788,8.325113360940856,0.06896531538812
24.632184,8.316224805939392,0.0687766442571962
24.634576,8.309850208363542,0.0685912471154426
24.636956,8.30440677634747,0.0684029379266328
24.639356,8.299894509891178,0.068212927561333
24.641744,8.29216943787497,0.0680448981905808
24.644124,8.281883186604905,0.0679070576739338
24.646528,8.270805539401918,0.0677659379401022
24.648916,8.259867661825796,0.0676193148034489
24.651296,8.247439540182452,0.0674955589942339
24.653692,8.239295159285662,0.0673413045353596
24.65608,8.221652131335986,0.0672489792104354
24.658464,8.211458427864539,0.0671389333642143
24.66086,8.205408695512784,0.0670042733872128
24.663248,8.20415456058678,0.0668530525367026
24.665632,8.205833691966973,0.0666895741392139
24.668028,8.205650492227608,0.0665301159424425
24.67042,8.198390055062353,0.0664072672729255
24.6728,8.192060783456876,0.066281856613804
24.675196,8.188944317411316,0.0661347638527709
24.677584,8.18969228323173,0.0659736064145189
24.679968,8.186156508305588,0.0658417627808823
24.682364,8.18117771114047,0.0656980532747707
24.684752,8.181413820281687,0.0655241231309001
24.687132,8.17750595830321,0.0653736487668374
24.689532,8.179744168190842,0.0651909275384955
24.69192,8.188268219571446,0.0649709734184735
24.694304,8.199585767631383,0.0647461132141833
24.696708,8.210763546064463,0.0645270060697039
24.699096,8.224362734124538,0.0642830802768407
24.70148,8.236611447744256,0.0640577045214216
24.703876,8.254634146177743,0.0637811681948
24.706264,8.266418224946507,0.0635067311327771
24.708648,8.274477641476157,0.0632398437414629
24.711044,8.282164970953469,0.0629547743769729
24.713432,8.293065105990696,0.06265107690133
24.715816,8.305175945841421,0.0623348363723809
24.718212,8.320499591252062,0.0619986368998667
24.7206,8.33768556778226,0.0616599327736824
24.72298,8.352589904312321,0.0613423671910807
24.72538,8.366563075282606,0.0610264764335906
24.727768,8.38603069181294,0.0606739546162907
24.730148,8.406289704276194,0.0603259444249028
24.732548,8.420682184127058,0.0599984691224615
24.734936,8.439777713605055,0.0596313108156226
24.73732,8.453006710470662,0.0592829574902322
24.739716,8.462650814724018,0.05893646510578
24.742104,8.468849795991979,0.0585853325320147
24.744484,8.475328316513659,0.0582247635680751
24.74688,8.48301754184884,0.0578543203029002
24.749268,8.489775601624242,0.0574849573073281
24.751648,8.496254122145926,0.0571271371680941
24.754052,8.509530340839776,0.0567529101861605
24.75644,8.527602156959379,0.0563704013024186
24.758824,8.545534203452121,0.0559943174861498
24.76122,8.558530882892251,0.055634038486537
24.763608,8.575531763825216,0.0552626527306689
24.765988,8.590390774384904,0.0549034922967736
24.768388,8.600593957145698,0.0545474532508618
24.770776,8.608283182480879,0.0541841194465541
24.77316,8.617834738935615,0.0538198053648706
24.775556,8.620960684270521,0.0534892842975464
24.777944,8.62287592479193,0.0531690378346616
24.780328,8.62264929494006,0.0528579494131841
24.782724,8.617579845834197,0.0525884838430728
24.785112,8.61823715971386,0.0523108641975982
24.787496,8.620057956578782,0.0520566985997333
24.789892,8.625603415682816,0.0518009663553853
