Time,Force,Position
22.805612,4.121472957703199,0.1673675000380499
22.808,4.146191327220894,0.1671172805546128
22.81038,4.174913898231423,0.1667574964692743
22.81278,4.204195547749393,0.1663496992230978
22.815168,4.233943727976186,0.1658237755001942
22.817548,4.262016568538527,0.1652633036767872
22.819948,4.28957755242167,0.164709605756742
22.822332,4.3180224800363485,0.1642080431428933
22.824712,4.353357653621813,0.1635763568069128
22.827108,4.395350755752584,0.1627542531726496
22.829496,4.4354815267638,0.1619966910824971
22.83188,4.4858551189325775,0.1609933626525379
22.834276,4.536461028526832,0.160050814081959
22.836664,4.593352779614056,0.1589335676783302
22.83906,4.655087349955277,0.1576258079320566
22.841456,4.7129121624601495,0.1563091134784366
22.843844,4.769620713808011,0.1549429369640947
22.846224,4.8238625295585,0.1535752488199026
22.848624,4.872285034524842,0.1523093199574812
22.851012,4.917821495013232,0.1510637191924335
22.853392,4.951811881731944,0.1500495152280135
22.855788,4.973185259494341,0.1492992934143517
22.858176,4.986550234271071,0.1487624730442454
22.860556,4.99828519535372,0.1483035256900989
22.86296,5.013465279421763,0.1477887782068327
22.865348,5.030228155355642,0.1472568047635947
22.867732,5.04205566423691,0.1468516214253709
22.901184,4.8942686789571495,0.1466185409876705
22.903568,4.893571726680717,0.1465091814551848
22.905964,4.8963671192179214,0.1462901222619639
22.908352,4.905168813994376,0.1459335314316321
22.910732,4.909454450598799,0.1456552331306805
22.913132,4.912716373844827,0.1453481212833003
22.91552,4.916816914852016,0.1449747371801957
22.9179,4.920545368806868,0.1445748263284364
22.920296,4.919850312388306,0.1442988896640051
22.922684,4.91966711264894,0.1440375002975051
22.925064,4.918505525521554,0.1438526269860615
22.927464,4.922371853245397,0.1436019351621137
22.929852,4.9281930598874135,0.1433625756312207
22.932232,4.938483102873219,0.1431015026184549
22.934636,4.95007639847114,0.1428430442772555
22.937024,4.95594293108353,0.1427074574737508
22.939408,4.966884600375392,0.1424424830222926
22.941804,4.972890902614643,0.1422964666541085
22.946576,4.972006958883108,0.1422551914329251
22.948972,4.973404655151709,0.1421468870301416
22.965696,4.983645580451403,0.142119444488409
22.968076,4.99737885056473,0.1419901243713948
22.97048,5.014976552544032,0.1417864704157692
22.972868,5.035787060083249,0.1415017053465105
22.975248,5.055945941316407,0.14121713819759
22.977648,5.074801569937452,0.1409238494864584
22.980036,5.089839988520766,0.1406498855275171
22.982416,5.111723327104492,0.1401896241574959
22.984812,5.139612967927467,0.1395986346019911
22.9872,5.165500508004025,0.1390550704804744
22.989584,5.190177343267084,0.1385407697854891
22.99198,5.216297200769121,0.1380262210723232
22.994368,5.242277288644297,0.1375213995443466
22.996752,5.2631350180117575,0.137192207689923
22.999148,5.288229266297529,0.136820805986586
23.001536,5.313975140889358,0.1364557522580048
23.003916,5.342514512160522,0.1360422563663605
23.006312,5.369471091565851,0.1356491306880888
23.0087,5.394844879105343,0.1352698065958385
23.011084,5.4252938033243066,0.1347846158088144
23.013484,5.454159935677436,0.1343123058129776
23.015872,5.4787895491122525,0.1338972331098586
23.018252,5.501696601054373,0.1335113881235422
23.020648,5.523812257063576,0.1331355433401865
23.023036,5.542295798632281,0.1328580554823736
23.02542,5.562594449492303,0.1326039905955106
23.027816,5.590202655203689,0.1322499330095787
23.030204,5.613387350541661,0.1320082619528103
23.032584,5.636944132931969,0.1317955879935181
23.034984,5.662363246441835,0.1315577815105678
23.037372,5.694859597377589,0.1311915329168294
23.039752,5.724330134208532,0.130832604972283
23.042148,5.752357648800499,0.130471097135395
23.044536,5.776428183727874,0.1301239630965084
23.04692,5.796262199736939,0.1298229482281456
23.049316,5.8160036679473865,0.1294833545813677
23.051704,5.831648386866384,0.1291731617498168
23.0541,5.841566342799851,0.1289514338398471
23.056496,5.847480097240485,0.1288002459923722
23.058884,5.849389650188285,0.1287223081387308
23.061268,5.854232469442281,0.1285956921985142
23.063664,5.856002252763221,0.1285274005365849
23.068432,5.853255977912131,0.1285167562222023
23.070828,5.852372034180595,0.1284793780494011
23.073216,5.850883685971245,0.1283865212306001
23.08516,5.787762794508636,0.1283548057522195
23.087548,5.774543276932375,0.1283084464162288
23.089932,5.767050522341644,0.1281788289260392
23.092328,5.764865221855863,0.127992503932747
23.094716,5.761189677302863,0.1278535899490761
23.0971,5.755372262376584,0.1277568383119408
23.099496,5.755141840808975,0.1275862834110481
23.101888,5.760917721480617,0.1273151475928453
23.104268,5.773631069951288,0.1269308426606917
23.106668,5.787834662489178,0.1264985341459815
23.109056,5.798593132041676,0.1261006906390435
23.111436,5.81284394640781,0.1256228948232062
23.113836,5.823370098534831,0.125192456210808
23.116224,5.840182092154822,0.1246458690898651
23.118608,5.86020689133473,0.1240426432669959
23.121004,5.879812381634055,0.1234677440472668
23.123392,5.89965018935886,0.1229245006541617
23.125776,5.91958054488228,0.1224212871730938
23.128172,5.942304397085037,0.1218784098054552
23.13056,5.963817544474294,0.1213706001315834
23.132944,5.98356090854261,0.1209243567427952
23.135344,5.995295869625261,0.1206086371339873
23.137732,5.999953593282022,0.1204112093124526
23.140116,6.005170395446223,0.1201801875090359
23.14252,6.011086045744726,0.1199049283659994
23.144904,6.016861926416368,0.1196374303902422
23.147288,6.020775475968454,0.1193957393026668
23.149684,6.025480421453459,0.1191541199893601
23.152072,6.026320935072489,0.1189669228945331
23.154452,6.026602370184079,0.1188137540665436
23.156852,6.028326827534645,0.1186639496148649
23.171188,6.021251485966624,0.1186364711329265
23.173576,6.021531025220344,0.1186198677956809
23.175956,6.027956636340177,0.1185081710683694
23.178352,6.03238014671359,0.1184255909437101
23.18074,6.04015623227378,0.1182786580123788
23.183124,6.052867684886581,0.1180614347764281
23.18552,6.068372634178718,0.1178100716026268
23.187908,6.084249670523195,0.1175836838415621
23.190288,6.101290189852925,0.1173777703790309
23.192688,6.12005327067535,0.1171587285827035
23.195076,6.13639494187078,0.1169938440273958
23.19746,6.15059474269293,0.1168687412990445
23.199856,6.168379436127337,0.1167116109184154
23.202248,6.189237165494796,0.1165091387495918
23.204628,6.210234664489118,0.116300181151447
23.207028,6.2307203068042405,0.1160774680321125
23.209416,6.249623157253528,0.1158588867496219
23.211796,6.273229057329949,0.1155427646953232
23.214192,6.297254266286953,0.1152001832999682
23.21658,6.313271072258288,0.1149719850668055
23.21896,6.328077173416124,0.1147696835682106
23.221356,6.34302304420082,0.1145622054616129
23.223744,6.349820742372988,0.1144768832963004
23.226124,6.357549606104936,0.1143813864367762
23.228524,6.367001031329579,0.1142756516273146
23.230912,6.379245953233556,0.1141428358686746
23.233292,6.396845551070728,0.1139262794981272
23.235688,6.416075162601979,0.1136654960302237
23.238076,6.437074557454168,0.1133520395083446
23.240456,6.457562095627161,0.1130258389176872
23.242856,6.482612913800427,0.1126197059657088
23.245244,6.50393906973458,0.1122482602072868
23.247624,6.523822203429759,0.1118763026061052
23.25002,6.539049509326044,0.1115503940984423
23.252408,6.552274714475914,0.1112500949291867
23.254792,6.567222481118479,0.1109410576227887
23.257188,6.583241182947684,0.1106157290851815
23.259576,6.599120115150027,0.1103017848182307
23.26196,6.617792544031706,0.109963093524449
23.26436,6.6416798792197165,0.1095487148840855
23.266748,6.669990724781142,0.1090652934193535
23.269132,6.694437138476594,0.1086250352198004
23.271532,6.719163091425767,0.1081660169798033
23.273916,6.745099749188438,0.1076850986729244
23.2763,6.764378478405801,0.1072716752695104
23.278696,6.778209983891354,0.1069047096603545
23.281084,6.785243791204738,0.1066147347221805
23.283468,6.787993857771568,0.1063888474913772
23.285864,6.7895332195249,0.1061871929138002
23.288252,6.794005847584427,0.1059554052795817
23.290636,6.795265670084037,0.1057704812017473
23.293032,6.801460859636261,0.1055314986369927
23.29542,6.8064453443749855,0.1053155596450739
23.2978,6.8172963617261,0.1050399276576083
23.3002,6.829497853517574,0.1047351200560583
23.302588,6.838393991950515,0.1044402959720834
23.304968,6.849292231129872,0.1041249133852712
23.307364,6.857536743256755,0.1038264808323924
23.309752,6.8654091683313005,0.1035096917334656
23.312136,6.874632067846205,0.1031672381951267
23.314532,6.880781931428055,0.102862684569437
23.31692,6.887862960569683,0.1025497842152364
23.319304,6.896946090457727,0.1022149598731166
23.3217,6.90123362292002,0.1019220246803477
23.324088,6.908454421688508,0.101598053894937
23.326468,6.918468717136331,0.1012522928482602
23.328868,6.927272307770655,0.1009255222134259
23.331256,6.937286603218477,0.1005769845029561
23.33364,6.943436466800327,0.1002643470257926
23.336036,6.945582128889342,0.0999964169970291
23.338424,6.946005229485661,0.0997353961146371
23.340804,6.941772502283088,0.0995104552123133
23.343204,6.933675343214543,0.0993208185309325
23.345592,6.919060025227548,0.0991816160832479
23.347988,6.905236103173473,0.0990417617033173
23.350384,6.894205677798731,0.0988798818452614
23.352776,6.878891511677437,0.0987743853617288
23.355156,6.864089202235339,0.098682621961925
23.364728,6.788953810436361,0.0986305248078553
23.367116,6.769960308046326,0.0986265258980407
23.3695,6.756833338268682,0.0985671731405566
23.371896,6.747570800357011,0.0984733855466881
23.374284,6.737237327258702,0.0983930629321357
23.376668,6.733841321959423,0.0982451477332425
23.379064,6.731516251846781,0.0980838924023045
23.381452,6.732915843973252,0.0978958950846514
23.383836,6.736457306473,0.0976811728764732
23.386232,6.742652496025223,0.09745366186097
23.38862,6.754294909309257,0.0971943078149615
23.391004,6.772735020765458,0.0968753524761714
23.3934,6.796482586326608,0.0965322785635513
23.395788,6.818088281514481,0.0962165813819259
23.398168,6.840345603008413,0.095911227209061
23.400564,6.866746895622039,0.095560081027869
23.402952,6.892217022675888,0.0952146112145919
23.405332,6.916476444916236,0.0948899419582059
23.407732,6.947673334955614,0.0945051757672135
23.41012,6.9810120953682695,0.0940933431451551
23.412504,7.013279920594285,0.0936949987163651
23.4149,7.047410076939859,0.0932891502337625
23.417288,7.077256492538877,0.0929357964125749
23.419672,7.106311512204976,0.0925871340244367
23.422072,7.137228862990634,0.0922286556432926
23.42446,7.164142012283457,0.0919111726667994
23.42684,7.187562816762644,0.0916440575469874
23.429236,7.21191478680161,0.0913733210240652
23.431624,7.2337055775867185,0.0911473479963907
23.434008,7.257498469118243,0.0909060783522798
23.436404,7.278497863970433,0.0906836513875979
23.438792,7.296424222889567,0.0904926044384679
23.441176,7.312348481062284,0.0903206483331943
23.443572,7.328412508861863,0.0901417358912237
23.445964,7.342474435915026,0.0899810271262238
23.448348,7.355325658154688,0.0898397298744839
23.450748,7.370318750767626,0.089675189457087
23.453136,7.385591382634288,0.0894978671097791
23.45552,7.3917846763286414,0.0894013749055137
23.45792,7.402494028195026,0.089286121369137
23.460308,7.419861308606719,0.0891300944231225
23.462688,7.434946949018276,0.0890043061124829
23.465084,7.455899122042222,0.0888363028797071
23.467472,7.472427784692755,0.0887196956826384
23.469852,7.486162950663952,0.088618692061255
23.472248,7.498687411821652,0.08853488277846
23.47464,7.515635383352765,0.0884001672316887
23.47702,7.5316521893241,0.0882715767668002
23.479416,7.551952736041988,0.0880991584900723
23.481804,7.567178146080405,0.0879702906659967
23.484184,7.584405656865238,0.0878265242527212
23.486584,7.602843872463572,0.0876663302878006
23.488972,7.619419756942347,0.0875158204057918
23.491356,7.638509598846737,0.0873632926287136
23.493752,7.659741311124405,0.0871900071125495
23.49614,7.681252562655793,0.0870057027006995
23.498524,7.703694979746958,0.0868185826030781
23.50092,7.726416936091844,0.0866202782589864
23.503308,7.752631237250368,0.0863768180536684
23.505688,7.77460901949058,0.0861418609964161
23.508084,7.789137477252565,0.0859454565147914
23.510472,7.803433617589072,0.0857246645225831
23.512856,7.817357670873243,0.0854880715721183
23.515256,7.836915939344326,0.0851897619538593
23.517644,7.859687013375324,0.0848625740368717
23.520028,7.886881597779737,0.0844910528199527
23.522428,7.912213851064593,0.0841306418490665
23.524816,7.933961211737196,0.0837807753754015
23.527196,7.952263449424406,0.0834381744417975
23.529592,7.971124765619058,0.0830708272850515
23.53198,7.987472124388095,0.082705908474141
23.534364,8.003167856851075,0.0823351213177647
23.53676,8.02142476856791,0.0819285845834688
23.539148,8.038797736553212,0.0814920662038049
23.541528,8.050583711179844,0.081078643838333
23.543924,8.059204102074803,0.0806580096162571
23.546312,8.065170765917287,0.0802443402933506
23.548692,8.074210465692827,0.0798105964014732
23.551092,8.085392035841645,0.0793604668388449
23.55348,8.094571505244044,0.0789231768049643
23.555864,8.103750974646445,0.0784842506069878
23.55826,8.111068112929287,0.0780525332332708
23.560648,8.110516617853323,0.0776659785879298
23.563032,8.10395882053811,0.0773177184844423
23.565428,8.092325886543422,0.0770033419391987
23.567816,8.078970391056039,0.0766911257394602
23.570196,8.066546061128435,0.0763756735969334
23.572592,8.058917328626581,0.0760377585562293
23.57498,8.052079992057646,0.075701834281872
23.577364,8.048315691421767,0.0753449430273255
23.57976,8.046134182651723,0.0749930164702279
23.582148,8.044883839441457,0.0746387531724975
23.584528,8.039349755484638,0.0743183484951728
23.586928,8.034187758580158,0.0740173987513134
23.589316,8.034752524661204,0.0736924393547814
23.591696,8.038994731153124,0.0733910400905193
23.594092,8.040955297644905,0.0731109316675357
23.596484,8.03448815227044,0.0728927307777325
23.598864,8.019453525402863,0.0727417817459988
23.60126,8.004930755214486,0.0726039612389676
23.603648,7.9939928776383615,0.0724596575917641
23.606032,7.984218483047494,0.0723368874421603
23.608428,7.978820377001797,0.0722098405483585
23.610816,7.975005062821935,0.0720875238272096
23.613196,7.974123014948271,0.0719502123080607
23.639492,7.868210041990496,0.0718827967998804
23.641876,7.867326098258963,0.0718498203064457
23.644272,7.876592427886372,0.0717581787167888
23.646664,7.897079966059365,0.0715996656171784
23.649044,7.921711475352051,0.0714155170403637
23.651444,7.9447601927789,0.0712269610163793
23.653832,7.970090550205887,0.0710178990066265
23.656216,7.997562778006151,0.0707940941895534
23.658616,8.02931874655297,0.0705404817701291
23.661004,8.063868211779123,0.0702817357039934
23.663388,8.10991842480458,0.0699485140604138
23.665784,8.15545678115084,0.0696021851398061
23.668172,8.199412345631261,0.0692513646449164
23.670552,8.241645348618988,0.0689009849723735
23.672952,8.283506264554378,0.0685327989522548
23.67534,8.316986690451762,0.068184856330217
23.677724,8.350886425229726,0.0678191060385245
23.68012,8.381061497768577,0.0674653364022035
23.682508,8.410724713628232,0.0670996205985752
23.684892,8.443368417622324,0.0666895098105547
23.687288,8.470936984936943,0.0663086502411334
23.68968,8.495572285945368,0.0659434990654816
23.69206,8.513549658408484,0.0656007410357204
23.69446,8.524869102326292,0.0652794320674457
23.696848,8.529530617698793,0.0649771225328517
23.699232,8.536334003444567,0.064662081602414
23.701632,8.537690165458534,0.0643527997762338
23.70402,8.538534470793302,0.0640314250705389
23.706404,8.536585279448737,0.063716810339311
23.7088,8.531190965118778,0.0633997875554726
23.711188,8.519510809295848,0.0631192198615828
23.713572,8.511695085338893,0.0628276850112213
23.715972,8.508954498061406,0.0625144812062388
23.71836,8.506353680410783,0.0621958086064719
23.72074,8.503752862760159,0.061877356125645
23.72314,8.512093714401399,0.0615180690428519
23.725532,8.52550970272211,0.0611380104235411
23.727912,8.538646151789099,0.06076754531908
23.730312,8.549640730482814,0.0604097015503444
23.7327,8.552998993243197,0.0601004400175577
23.735084,8.558359356749998,0.0597832493476743
23.737484,8.558644583577326,0.0594867067020368
23.739872,8.559721206337574,0.0591931381416676
23.742256,8.561589225030739,0.0589025970514555
23.744652,8.568113071522793,0.0586050519549218
23.74704,8.56821130689502,0.0583446410160788
23.749432,8.571894434879495,0.0580834480402784
23.751828,8.574227088423614,0.05783918668672
23.75422,8.575209267527374,0.0576110738619438
23.7566,8.574701202563915,0.0574035520305363
23.759,8.575264072787094,0.0571897664183754
23.761388,8.5707518063308,0.0569968334969301
23.763776,8.55781182800826,0.0568472924080313
23.766176,8.546594411178416,0.0567004224651921
23.768568,8.534166289535072,0.0565642040828456
23.770956,8.515312556771898,0.056463697344063
23.773352,8.494037414381726,0.0563845075862036
23.775744,8.47648693423067,0.056301594180067
23.778136,8.46452344743828,0.0562131802279486
23.780544,8.461639298818197,0.0560922688916181
23.782928,8.459406776504172,0.0559803976776781
23.785312,8.462901017175676,0.0558583328150232
23.787708,8.467978049713018,0.0557444332493191
23.790096,8.472915312623499,0.0556353048333751
23.79248,8.478643971466898,0.0555307433039105
23.794884,8.491449867736186,0.0554011263336786
23.797272,8.50690949105795,0.0552747629151085
23.799668,8.520087474379576,0.0551643240405104
23.802064,8.532194522514564,0.0550592266120233
23.804452,8.548445541769244,0.0549367591416744
23.806848,8.564836330650786,0.0548099906540489
23.809244,8.582158285092106,0.0546822699421175
23.811632,8.605346772145817,0.0545400936952144
23.814036,8.629326655132445,0.054403055694128
23.816432,8.657310739611907,0.0542545358660014
23.81882,8.687296924837785,0.0540999817406149
23.821216,8.715281009317247,0.0539518246380675
23.823612,8.741961841184594,0.0537874869008617
23.826,8.760913809319995,0.0536381436352718
23.8284,8.775582036708839,0.0535115247993368
23.8308,8.790529803351403,0.0533760678386649
23.833184,8.80589687887455,0.0532275257839145
23.835584,8.81874999697208,0.0530711588407874
23.837984,8.834536381375809,0.0529089611253819
23.840372,8.846598103540423,0.0527490201718171
23.842772,8.85558678977198,0.0526008241564332
23.845168,8.862341057831646,0.0524361668930948
23.847564,8.871376965891445,0.0522562594757442
