Time,Force,Position
23.236676,2.777590646951827,0.1794816294328858
23.23908,2.9380852931286507,0.1777508898231242
23.241468,3.09090019325964,0.1762534351520862
23.243848,3.23734049581478,0.1742338413211118
23.246244,3.370236415569564,0.1724420520147747
23.248636,3.4848376810686137,0.1712856690516345
23.251016,3.587335690148416,0.170458512600269
23.253412,3.676100429114889,0.1700633636596374
23.255804,3.7648217379688576,0.1691735361721292
23.258184,3.8456782051797576,0.1680759391255649
23.26058,3.9115925933217,0.1671927603855556
23.262968,3.974622832843559,0.1661882503824734
23.265352,4.033138910051255,0.1651493687579779
23.267748,4.089888995653751,0.1637964299731111
23.270136,4.136260282187563,0.1623994830234789
23.272516,4.16633901521206,0.1612459398872845
23.27968,4.158987926106057,0.1609038209389144
23.28208,4.163551206106331,0.1607191615137592
23.294012,4.1626672623747965,0.1606748313351366
23.296412,4.165553306852748,0.1606552606053357
23.298796,4.1688586602112805,0.1605937508642244
23.30118,4.1745854231968105,0.1604244020537658
23.303584,4.182174517301898,0.1602108152044104
23.305968,4.197352705512071,0.159794876978415
23.308352,4.216674864841939,0.1592436059807554
23.310748,4.226266059693442,0.1589776206961564
23.3203,4.242790930628237,0.1588903360173061
23.32268,4.258805840741703,0.1585950375324833
23.325076,4.2793368090272,0.1582034939428526
23.327464,4.30238173473831,0.1577782767982171
23.329844,4.324076186009063,0.1574130732365918
23.332244,4.347260881347034,0.1569672710329132
23.334628,4.372866986312004,0.1564143924263957
23.337008,4.3888818964254686,0.156127178081549
23.339416,4.409692403964686,0.1557235123656078
23.3418,4.431014768183102,0.1553285694472989
23.34418,4.454199463521074,0.1548875708281405
23.34658,4.478455094045684,0.1544104719539186
23.348964,4.509089113861883,0.153806807737469
23.351348,4.540746847036476,0.1532601974823353
23.353744,4.56476826427774,0.1529694612420891
23.356132,4.58902199894448,0.152726330915685
23.358512,4.617419704730916,0.1523574675581384
23.360908,4.648378589771209,0.1518870298373098
23.363296,4.682270741117696,0.1513567627453901
23.365692,4.721889655449714,0.1506904888673893
23.368092,4.76257950496837,0.1499961618143917
23.37048,4.796099569262521,0.1494567463633428
23.37286,4.8255228842652205,0.1489836485356668
23.375256,4.852292472215445,0.1485657879687585
23.377644,4.886139297591559,0.1479836414316164
23.380024,4.922639850020147,0.1473620415692067
23.382416,4.960211337635373,0.1467144303852104
23.384804,5.000855861183656,0.145975957766177
23.387184,5.032700585813354,0.145444046340703
23.38958,5.071482778242081,0.1447610187709758
23.391972,5.109333805111029,0.1440989725100245
23.394368,5.149326702353253,0.1433894864824511
23.396764,5.178425152131859,0.1428803726123269
23.399152,5.202355917432375,0.1424528862147358
23.401532,5.22763715717325,0.1419713503156082
23.403928,5.245888381316479,0.141594832689118
23.406316,5.264698683967148,0.1411794693826855
23.408696,5.28192619475198,0.1407813341148047
23.411092,5.291564611431728,0.1405324497119613
23.41348,5.303996524790808,0.1402404401450915
23.415864,5.318290769269447,0.1399199486897961
23.41826,5.332864553001806,0.1395784398887049
23.420644,5.341432034494915,0.1393630647364297
23.446944,5.326025320575003,0.1392883290861837
23.449328,5.325700455350909,0.1392101012978301
23.451712,5.33403561941854,0.1389711500259118
23.454108,5.337575186060419,0.1388197924212968
23.4565,5.338693343075301,0.1387394618097233
23.45888,5.343675931956155,0.1385846472544566
23.461276,5.341209196358784,0.1385575289209033
23.463664,5.336228503335797,0.13855683393385
23.466044,5.332970371805508,0.1385347889983064
23.46844,5.335578772887609,0.1383991460095631
23.470828,5.337395778036791,0.138269101402468
23.473208,5.337769760946998,0.1381404246067711
23.475608,5.3384232831109255,0.1379912748738131
23.477996,5.3440121723274645,0.1377431140270162
23.480376,5.346528025610949,0.1375637075644677
23.48278,5.34997504445421,0.1373689475330488
23.485168,5.358217660723224,0.1370888362873368
23.487548,5.368462377738656,0.136772742652188
23.489952,5.380429656246784,0.1364359662680226
23.49234,5.393420648113307,0.136130234958452
23.49472,5.410276071845802,0.1357507107824345
23.497124,5.416748904793876,0.1355486212939592
23.499508,5.4162842699429214,0.1354810135127278
23.501892,5.421127089196916,0.1353430540805101
23.504288,5.431976210690161,0.1350872168888101
23.506672,5.445246741810406,0.134766887686712
23.509056,5.459727977744147,0.1344103012716446
23.511452,5.47313827849125,0.1340788808772734
23.51384,5.484127169611355,0.1338156751461306
23.51622,5.494184895171683,0.1335678682398225
23.51862,5.506803799985867,0.133244443164003
23.521004,5.521424805546469,0.1328833245091293
23.523384,5.539910242973043,0.1324591101910743
23.525788,5.555043105212844,0.132117729505809
23.528176,5.570175967452644,0.1317763488205438
23.530556,5.584936742640107,0.1314127552367499
23.532956,5.592387962976201,0.1311531422642826
23.535344,5.592901715513269,0.1310200659883091
23.537724,5.592204763236838,0.1309198344095333
23.540128,5.588993853534791,0.1308428159820375
23.542516,5.58941505827324,0.1306685124367577
23.544896,5.596633961183859,0.1303779973547837
23.5473,5.608648461520229,0.1300082993943307
23.549684,5.622944601856737,0.1295899080470858
23.552064,5.632584914394353,0.1292421083452179
23.554472,5.638081255812275,0.1289770050928549
23.55686,5.644508762789975,0.1286987849460432
23.55924,5.651448126446874,0.1284345259289017
23.561636,5.659737964544131,0.1281285650521297
23.564024,5.670449212268385,0.1277619391735172
23.566404,5.6763648625668885,0.1274702326246822
23.5688,5.680138642492114,0.1272231849629091
23.571192,5.678837285737868,0.1270688824381573
23.573572,5.679957338610619,0.1268524393341298
23.575968,5.682427865923729,0.1265965766333715
23.578356,5.687691889916175,0.1263050780705431
23.58074,5.697332202453791,0.1259669766314931
23.583136,5.712978817230656,0.1255246646865693
23.58552,5.728765201634383,0.1250714535061783
23.5879,5.742829024545413,0.1246308567287038
23.590304,5.747301652604938,0.1243372878002232
23.592688,5.747490539917912,0.1241319371879175
23.595068,5.745165469805269,0.1239469785992422
23.597472,5.7339008311471815,0.1239126538004112
23.59986,5.723846897302592,0.123846876284842
23.60224,5.715003668271503,0.1237499490687994
23.63808,5.537508141161716,0.1237461516264953
23.64048,5.53797467187054,0.1236676465428988
23.642864,5.53974445519148,0.1236009040748391
23.645248,5.550314037431005,0.1233958698191337
23.647644,5.561115937096006,0.123224701661138
23.650032,5.573500628626845,0.1230487224769395
23.652412,5.585745550530824,0.1228830708590236
23.654812,5.6005044298604165,0.1226998090551636
23.657196,5.618428892921682,0.1225063461019379
23.65958,5.640357557475781,0.1222490264613522
23.661976,5.657211085350408,0.1220779947246681
23.664364,5.67699787953123,0.1218637053501398
23.666744,5.700229796697444,0.1216217406704323
23.669148,5.733472217595744,0.121223951813132
23.671536,5.771370466292935,0.1207724584171107
23.67392,5.814064312415877,0.1202568806717352
23.676316,5.859551655218155,0.1197100905489151
23.678704,5.906109933207071,0.1191440798841898
23.681084,5.948943548956873,0.118635127147199
23.68348,5.9962006750800905,0.1180551131110935
23.685872,6.044296418964469,0.1174368246543483
23.688252,6.092392162848846,0.1168307181580434
23.690648,6.145702813039557,0.1161543342057411
23.693036,6.195940427297214,0.1155353369633659
23.69542,6.2438038537561145,0.1149197437474593
23.697816,6.287802848349042,0.1143517535318415
23.700204,6.331941612568829,0.1137794960370424
23.702584,6.3726352538032245,0.1132310034381362
23.70498,6.410814937612005,0.1127004450245408
23.707368,6.44634089436831,0.1121970046340921
23.709752,6.485359195938252,0.1116238328645886
23.712148,6.523725871202136,0.1110512210571375
23.714536,6.557716257920848,0.110512087134966
23.716916,6.583977780907614,0.110072839416265
23.719316,6.604792080162572,0.1096835840731811
23.7217,6.621602177924692,0.1093480400774887
23.724084,6.638272506059954,0.1090232810482964
23.72648,6.654151438262297,0.1087008290788962
23.728868,6.669099204904864,0.1083884920376433
23.731248,6.677249273375259,0.1081568670886238
23.733644,6.68218653628574,0.1079753765416656
23.736032,6.683538906583968,0.1078212933333064
23.738428,6.674089377217195,0.1077899466553939
23.740828,6.663988221544363,0.1077519085967507
23.743212,6.657611728110644,0.1076802282039067
23.745596,6.654587809863701,0.1075537476224294
23.747992,6.6523552875496765,0.1074267608712514
23.75038,6.657060233034681,0.1072212555739137
23.75276,6.659623308146408,0.1070461249731447
23.75516,6.66497987993747,0.1068478245039002
23.757548,6.667915042101534,0.1066949590900086
23.759928,6.672432996131434,0.1065419198913302
23.762328,6.680955151654169,0.1063432591964579
23.764716,6.689477307176904,0.1061441168715371
23.767096,6.700792959378972,0.105921154562701
23.769492,6.712667690088482,0.1056686363753985
23.77188,6.722308002626098,0.105411983889319
23.774264,6.730365523297878,0.1051562527039254
23.776668,6.736560712850101,0.1049156467553665
23.779056,6.741545197588826,0.1046965328437001
23.781436,6.74666945195441,0.1044704434183149
23.783832,6.752724871879773,0.1042365406781883
23.78622,6.763995198111469,0.103931850543239
23.788604,6.773123653969887,0.1036570397266213
23.791008,6.779598382775831,0.103399580404176
23.793392,6.786864507514692,0.103143541674495
23.795776,6.790545739641301,0.1029114166969363
23.798172,6.789151835088437,0.102741095654122
23.80056,6.791110505722348,0.1025190181568337
23.80294,6.7870628741170105,0.1023640722731994
23.805336,6.788230148818005,0.1021435123101788
23.807724,6.7855329916530245,0.1019605357894411
23.810104,6.781485360047687,0.1018068628934142
23.812508,6.778089354748406,0.1016598608975962
23.814896,6.77269124870271,0.1015346595070845
23.817276,6.769667330455766,0.1014088131897103
23.819672,6.765013398514743,0.1013253745771637
23.82206,6.763804589559113,0.1012268615189819
23.82444,6.765249507655958,0.1011134559097411
23.82684,6.766694425752805,0.1009993637430149
23.829224,6.769861905342346,0.1008782450827457
23.831608,6.7727498456781685,0.1007714586718195
23.834012,6.776009873066327,0.1006860816733035
23.8364,6.781411770827763,0.1005717817022504
23.83878,6.788675999708755,0.1004433809604308
23.841188,6.795009063029969,0.1003232471681303
23.843572,6.80348399672446,0.100174683502424
23.845952,6.812238469672671,0.1000124891339359
23.848348,6.820853172994022,0.0998585452477225
23.850736,6.833751617061927,0.0996481730893864
23.853116,6.841202837398023,0.0994740925855521
23.855516,6.8480024314280605,0.0992921693233484
23.8579,6.855221334338679,0.0990902385064277
23.86028,6.86299931575674,0.0988606158378157
23.86268,6.872267541242018,0.0985963981626023
23.865064,6.879161578928543,0.0983324044676585
23.867448,6.890479126988483,0.0980071836485244
23.869844,6.898072012809307,0.0977090743545345
23.872232,6.9043616460180175,0.0973970543006477
23.874612,6.912001753667086,0.097056422143507
23.877008,6.916196738330762,0.0967289568844171
23.879396,6.918017535195683,0.0963993586121538
23.881792,6.918674849075348,0.096048413486329
23.884188,6.920263328514792,0.0956917234154449
23.886576,6.921991577581095,0.095329565729077
23.88896,6.921857495527842,0.0949805878796969
23.891356,6.919721312728173,0.0946506897148957
23.893744,6.914512093995449,0.0943527114389629
23.896128,6.907440544143168,0.0940674636834458
23.898524,6.893431526491857,0.0938462298709433
23.900912,6.880865531079524,0.0936322891895179
23.903292,6.869510240480688,0.0933969884292282
23.905688,6.85321958282924,0.0932066513180902
23.908076,6.834275198125319,0.0930271284849822
23.91046,6.818264079727593,0.0928208319130446
23.912856,6.806117393195838,0.0925826774816366
23.915244,6.790897670731029,0.092376107143956
23.917624,6.7779595882663575,0.0921360236008818
23.92002,6.764462427294245,0.0919227884639154
23.922408,6.755621094121024,0.09168015513224
23.924792,6.744358351320807,0.0914754472584611
23.927188,6.734538630759564,0.0912786562631426
23.929576,6.726161932437297,0.0910904932849372
23.93196,6.713781032622197,0.0909395257248841
23.934356,6.696185226500765,0.0908458215436654
23.936744,6.676307780379195,0.0907851761701921
23.939124,6.6580131261234605,0.0907263107278347
23.94152,6.641441033360422,0.0906624784782611
23.943908,6.626591502090082,0.0905930925686933
23.946304,6.620541769738327,0.0904473996393778
23.9487,6.615283433319489,0.0903028421579456
23.951084,6.611048810259048,0.0901885711734922
23.972588,6.590007881152221,0.0900979713617869
23.974968,6.594244400070533,0.0900900848066318
23.977372,6.598341149361984,0.0900892719480187
23.97976,6.608164661638965,0.0900473675274121
23.982144,6.627067512088253,0.0899204231833737
23.98454,6.6518368951499305,0.0897456128426942
23.986924,6.678887918211745,0.0895406470982593
23.989308,6.710734538699311,0.0893028020202838
23.991704,6.742581159186877,0.0890668635283772
23.994092,6.772797765980364,0.0888735141885449
23.996472,6.803154142400711,0.0886747400036735
23.998872,6.836071698074916,0.088434068017906
24.001256,6.869129023375979,0.0881882155262003
24.00364,6.900603556811209,0.0879406999937322
24.006036,6.932357629500158,0.0876791196011857
24.008424,6.972120105174775,0.0873460124032329
24.010804,7.009228853796917,0.0870234010471549
24.0132,7.046617141672779,0.0866903145401599
24.015588,7.086798926227976,0.0863469894884154
24.017972,7.129122581156451,0.0859791582012739
24.020368,7.162646437166339,0.0856788359867177
24.022756,7.194307962056672,0.0853907337801006
24.025152,7.226109256573864,0.0850976518913307
24.027548,7.256187989598359,0.0848115057698686
24.029936,7.279049715570107,0.0845946548590493
24.03232,7.303122146355353,0.0843642858906039
24.034716,7.32491293714046,0.0841640723259139
24.037104,7.340045799380259,0.0840036376028694
24.039484,7.356249596806697,0.0838336706556907
24.04188,7.374502716807795,0.0836114643769805
24.044268,7.392755836808893,0.0833904364887862
24.046648,7.407796151250076,0.0832030242689909
24.049044,7.422184839385201,0.0830086186468801
24.051432,7.440577729013159,0.082786647670053
24.053816,7.460460862708338,0.0825371051155273
24.056212,7.481694470843874,0.0822692358921129
24.0586,7.503859244539189,0.081997206453216
24.060984,7.524441226368668,0.0817231472425662
24.06338,7.539296445212616,0.0814809178291078
24.065768,7.555781677750644,0.0812068248930148
24.068152,7.57934414771456,0.0808809440886621
24.070548,7.60812152398481,0.0805159463662919
24.072936,7.637318209135638,0.0801358693338535
24.07532,7.66544395909983,0.079766963442686
24.077716,7.695711579437299,0.0793774303573291
24.080108,7.721323371975875,0.0790103213748424
24.082488,7.74935657414145,0.078614628748063
24.084888,7.783396078546276,0.0781801452134762
24.087276,7.8117088199655695,0.077773250660658
24.08966,7.833316411011313,0.077435976785008
24.09206,7.855343310937638,0.077083420350582
24.094448,7.87993139011782,0.0766971031183149
24.096824,7.906242030790698,0.0763119747159386
24.099228,7.928967778851323,0.0759388041281526
24.101616,7.946618390232476,0.075599177431548
24.103996,7.956260598627961,0.0753097811870328
24.106396,7.9680446773967235,0.0750037047585797
24.108784,7.980620152098404,0.0747011569451923
24.111164,7.99598912347942,0.0743887817002148
24.113568,8.009216224487158,0.0740961869475887
24.115956,8.018578893628924,0.0738231554508785
24.118336,8.022726656464355,0.0735899579456132
24.12074,8.02580348411315,0.0733660428313755
24.123124,8.03223288694872,0.0731125340454185
24.125504,8.040012764224649,0.0728404255356516
24.1279,8.045511001500438,0.072589544014122
24.130284,8.044723397283258,0.0723830787153669
24.132668,8.042073461946522,0.0721833215676873
24.135068,8.0431481888489,0.0719714899703708
24.137456,8.047715260564912,0.0717228541276904
24.139836,8.048929757094148,0.0715047169833432
24.142232,8.044929347317053,0.0713224927923528
24.14462,8.041068707166819,0.0711355943716658
24.147,8.036788758136002,0.0709651526277803
24.149396,8.038095802463856,0.0707783495678814
24.151784,8.044338213844323,0.0705665911738405
24.154164,8.047507589291733,0.0703743162614745
24.15656,8.048674863992726,0.0701929261796935
24.158948,8.046117476454608,0.070021649416749
24.16134,8.045282650409186,0.0698511443104012
24.16374,8.046170385856461,0.0696810742335436
24.166124,8.046266725370817,0.0695079829622781
24.168504,8.04715446081809,0.0693381969598606
24.170908,8.041896124399253,0.0692050957361365
24.173296,8.037429183913334,0.0690753333686117
24.175676,8.039248084920386,0.0689044137919984
24.178072,8.049075388913105,0.0686932197804771
24.18046,8.055969426599628,0.0684946223764621
24.18284,8.06421393872651,0.0682782680292005
24.18524,8.073389616413172,0.0680604909881745
24.187628,8.08591786928661,0.0678147426840185
24.190008,8.10231055402602,0.0675545072706257
24.192404,8.114978576526317,0.0673038984458848
24.194792,8.126855203093697,0.0670501562970108
24.197176,8.13835974260874,0.0667789186617873
24.19958,8.148281490257945,0.0665019226073401
24.201964,8.158622546787733,0.0662088594617863
24.204348,8.169243142571238,0.0659049043412894
24.206744,8.186940975780635,0.0655668892587279
24.209128,8.198120650071582,0.0652421396271316
24.211512,8.209859402869972,0.0648977832986488
24.213916,8.219875594175663,0.0645509407213807
24.2163,8.225235957682463,0.0642128326355682
24.218684,8.234740292308958,0.0638509175235275
24.221088,8.241451130256118,0.063495687196465
24.223472,8.241084730777386,0.0631744267774283
24.225852,8.236202273126628,0.0628580272887208
24.228248,8.233461685849143,0.0625271202164795
24.230636,8.231792033758298,0.0621908050292871
24.233016,8.230262151294312,0.0618503614084229
24.235416,8.223936671404575,0.0615220719935904
24.2378,8.21109303259639,0.0612027997922279
24.240184,8.202113825654177,0.0608721337208306
24.24258,8.191272287592408,0.0605429821215856
24.244968,8.179359814344,0.0602207128315977
24.247348,8.171451542588429,0.0598831224229371
24.249744,8.16526583232555,0.0595481342576078
24.252132,8.16122199243595,0.0592004232040796
24.254516,8.152522324747459,0.058860197547544
24.25692,8.151411751164055,0.0585047136804
24.259308,8.14923024239401,0.0581563411091487
24.261688,8.152775496609499,0.0577966919792506
24.264092,8.161907744183655,0.0574301394912541
24.26648,8.167966955824756,0.0570771885780413
24.26886,8.174817563398776,0.0567284087171814
24.271256,8.18474120690585,0.0563647799783848
24.273644,8.192662749666509,0.0560073855857264
24.276028,8.200304753173446,0.0556609010137748
24.27842,8.203663015933829,0.0553390670494993
24.280808,8.203156846828241,0.055025531475032
24.283192,8.20702696626782,0.0547172197490279
24.285596,8.222490381305324,0.0543845542174184
24.287984,8.23488076040977,0.0540656806827895
24.290364,8.251135571380189,0.0537386688181232
24.292768,8.264177576790694,0.0534287487288489
24.295156,8.272796071827784,0.053148566042077
24.29754,8.282345732424652,0.0528693344391002
24.299936,8.291476084140939,0.0526065800767379
24.30232,8.300047357349785,0.0523639540233874
24.3047,8.305685364252438,0.0521291702551208
24.307096,8.309833127087872,0.0519149252785276
24.309484,8.310907853990248,0.0517130788790444
24.311864,8.30932885384015,0.0515079548685849
24.314268,8.309472415182748,0.0513066097948834
24.316656,8.306822479846014,0.0511058790333112
24.31904,8.306686501934891,0.0509142965739571
24.321436,8.316141718875272,0.050710786324848
24.323824,8.323594835069237,0.0505126312477746
24.326208,8.33197911682298,0.0503136648106428
24.328604,8.342737586375478,0.0501283278100447
24.330992,8.35070255924864,0.049943776456103
24.333372,8.351450525069053,0.0497869550400431
