Time,Force,Position
4.077772000000001,4.103292778288425,0.1358040318649532
4.080156000000001,4.111580720527814,0.135581522615755
4.082556,4.12787706575287,0.1351596490850681
4.084948000000001,4.1468271380304,0.1346967864791713
4.0873360000000005,4.168570706987265,0.1341859519698031
4.089716000000001,4.189522880011212,0.1336877707646991
4.092112,4.214619024154852,0.1330816201189315
4.0945,4.242788204231548,0.1323994110956505
4.0968800000000005,4.269606909867887,0.1317733453508682
4.099284000000001,4.293073040317448,0.1312600477832358
4.101672000000001,4.321474537819621,0.1306374448878669
4.104052000000001,4.346802999388739,0.1300829458582819
4.106448,4.377066828010469,0.1294179325458237
4.108836,4.410263922938394,0.128697259209577
4.111212,4.442809391560263,0.1279729798103519
4.113620000000001,4.476286025741908,0.1272420935783483
4.116004,4.507900328803996,0.1265325227338216
4.118384000000001,4.535370660746391,0.125934507055268
4.12078,4.561350748621567,0.1254093955438732
4.1231680000000015,4.585328735750327,0.124934553069932
4.125564000000001,4.608096018065586,0.1244966258414392
4.12796,4.626859098888014,0.1241603698960107
4.1303480000000015,4.640035186351771,0.1239244800317366
4.132728,4.652419877882609,0.1236963071856025
4.135124000000001,4.657867101614419,0.1236123330882559
4.161396,4.614901299669232,0.1236079146893833
4.163792000000001,4.610898994034268,0.1235134535207478
4.166180000000001,4.60917832839944,0.1233566906445281
4.168560000000001,4.607085575712276,0.1231710837651575
4.170956,4.605412131905693,0.1229527938045419
4.173344,4.606299867352967,0.1226511265960721
4.175740000000001,4.602392005374488,0.1224316977014848
4.178136,4.599415308955788,0.1221965331978517
4.180520000000001,4.593645115857752,0.1220051987078248
4.1829,4.593229598692911,0.1216831322906825
4.185296000000001,4.590811980781652,0.1214000197787353
4.187684000000001,4.585600866191058,0.1211617961267547
4.190064000000001,4.5823918523468805,0.1208821504816639
4.192468,4.579974234435621,0.1205983695819147
4.194852000000001,4.578627551711,0.1202882151397374
4.197232000000001,4.581564609732934,0.1198747749716156
4.199628000000001,4.585432833314647,0.1194509074272943
4.202016,4.589301056896359,0.11902596634757
4.204412000000001,4.60052605715768,0.1184338309694013
4.2068080000000005,4.606815690366389,0.1179382029506788
4.209196,4.612965553948239,0.1174550618631783
4.211576000000001,4.614739128984917,0.1170240697277945
4.213972,4.615721308088677,0.1165975803878984
4.21636,4.619496983871771,0.1161349097497319
4.21874,4.622061954841368,0.1157066765731559
4.221144000000001,4.623695760251185,0.1152934525802562
4.223528,4.6325465727137525,0.1147365821037821
4.225908,4.640466219616542,0.1141894367265258
4.228312000000001,4.6515986720792455,0.1135717000253065
4.230700000000001,4.660589254168673,0.1130028085286569
4.233080000000001,4.676657073683989,0.1123050180654719
4.235476,4.694587224318862,0.1115790189596514
4.237864,4.710235734953598,0.1109123671082039
4.240244000000001,4.7257444759614735,0.1102579949604152
4.2426400000000015,4.738180181036294,0.1096601334459089
4.245024000000001,4.7483342461109785,0.1091242816812832
4.247408,4.756486210439245,0.1086279614900373
4.249812,4.767291901819986,0.1081079138495593
4.252196000000001,4.773813852454173,0.1076817206780812
4.254576,4.786481874954469,0.1071481017584567
4.256972000000001,4.796868257454629,0.1066666381266735
4.259356,4.80562462626071,0.1062463354788606
4.261752000000001,4.814241225439931,0.105837948675524
4.264156,4.8188536231263175,0.1054991463310515
4.2665440000000014,4.826399287118899,0.1051174640237377
4.268924,4.83366541185776,0.1047572818978745
4.271324,4.837299422156126,0.1044944421583704
4.2737120000000015,4.846939734693743,0.1041384493154316
4.276092,4.855229572791,0.1038255044190091
4.2784960000000005,4.867663382007951,0.10344364118577
4.280884,4.873019953799012,0.1031762554996409
4.283264000000001,4.880658165590212,0.1028612694627229
4.28566,4.893371514060884,0.102470014081355
4.288048,4.905153696971777,0.1020885019509564
4.290428,4.9217314773084215,0.1016473088294138
4.292824000000001,4.935655530592592,0.1012243419120188
4.295212000000001,4.945435612757068,0.1008676969858089
4.297592,4.95256196786907,0.1005331436505898
4.299996,4.961830193354349,0.1001600043313367
4.302380000000001,4.961879311040461,0.0999350620443743
4.30476,4.965281003913349,0.0996409250832485
4.307156000000001,4.970964336786374,0.0992962403507647
4.309544000000001,4.9743660296592624,0.0989998854154278
4.311928,4.975905391412594,0.0987214984434447
4.314324000000001,4.972649155740173,0.0985032174873757
4.316712000000001,4.969392920067754,0.0982849286310814
4.319092000000001,4.9666957629027735,0.0980268749019225
4.321488,4.96092556980474,0.0978197037032991
4.323876,4.956086542266483,0.0976031169352763
4.326256000000001,4.946032608421895,0.0974729131606831
4.3286560000000005,4.9409140416299175,0.0972755830465075
4.331044,4.934584770024442,0.097107307827377
4.333424000000001,4.921457800246797,0.097021895523335
4.335828000000001,4.90954153528265,0.0969073860832718
4.338216000000001,4.897625270318505,0.0967920955259601
4.3405960000000015,4.889433667593472,0.096640693592662
4.343,4.889250467854107,0.0963807329608219
4.345388,4.887996332928104,0.0961379079183861
4.3477640000000015,4.881667061322629,0.095967020308473
4.350160000000001,4.881344091956405,0.0957123259954075
4.3525480000000005,4.877948086657124,0.0955035535992052
4.354928000000001,4.874691850984704,0.0952851080252746
4.357332000000001,4.873996794566141,0.0949999650084267
4.359716000000001,4.874093134080496,0.0947129962830146
4.3621,4.876051804714408,0.0944058019133788
4.364496000000001,4.875356748295847,0.0941145912207975
4.366884000000001,4.873590756690645,0.0938421063289393
4.369264000000001,4.866889398032831,0.0936336044694971
4.371668000000001,4.855532211576127,0.0934699318758599
4.374052000000001,4.8455254995597805,0.0932660554645811
4.376432000000001,4.8337962260507386,0.0930699176444889
4.378828,4.818202520675722,0.0929189852171747
4.381216,4.802748584927568,0.0927570872381283
4.383600000000001,4.78794627548547,0.0926051607176736
4.385996,4.7682085989907605,0.0925180602466628
4.388384,4.748610692122912,0.0924185708332065
4.393176,4.696471108348933,0.09239139131796
4.395564,4.674591561480947,0.0923392900427938
4.397944000000001,4.650570144239682,0.0923243670453434
4.40034,4.630413158864392,0.092262349968144
4.4027280000000015,4.610907799795161,0.0922097709588519
4.405108,4.590843362218488,0.0921956573529571
4.407504000000001,4.5709186942686735,0.0921723989152008
4.409892000000001,4.554998227811694,0.0920923606646789
4.4122720000000015,4.54052078359369,0.0920254570001331
4.414668000000001,4.528417527174442,0.091962406882569
4.4170560000000005,4.522180803367584,0.0918268288234631
4.4194520000000015,4.519528972172979,0.0916655725713651
4.421848000000001,4.5212534295235445,0.0914823220490402
4.4242360000000005,4.523629513180168,0.0913114671022959
4.426616000000001,4.529590489449045,0.0911159432514997
4.429012,4.5407191501960105,0.0908998116411632
4.4314,4.552639206875894,0.0906875057369151
4.4337800000000005,4.570286026541308,0.0904151881755822
4.4361760000000015,4.586302832512643,0.0902024884755197
4.438564000000001,4.604042199976675,0.0899820517285809
4.440944,4.629789970426374,0.0896577241139062
4.443348,4.654466805689434,0.0893533653351971
4.445736,4.68207690725869,0.0890160779049574
4.448116000000001,4.707405368827808,0.0887276790179619
4.450512,4.730731729650509,0.0884659441607308
4.452900000000001,4.755129025659849,0.088187803152702
4.455284000000001,4.786324019841357,0.087840172075587
4.45768,4.81351481253003,0.0875482181822004
4.4600680000000015,4.842056079659065,0.0872189832230601
4.462448,4.867431763056425,0.0868830319420611
4.4648520000000005,4.89080534570737,0.0865757705472771
4.46724,4.91725196429137,0.0862310185081222
4.469624000000001,4.937040654330061,0.085949125828923
4.4720200000000006,4.956037948435833,0.0856672418585754
4.474408,4.977316882541744,0.0853475288880118
4.476788000000001,4.99771187291612,0.0849825978474341
4.479184,5.014941279558823,0.0846098102306978
4.481572,5.025792296909938,0.0842755252652811
4.483952,5.036550766462435,0.0838921556199969
4.486352,5.046937148962596,0.0834787626822933
4.488736000000001,5.0518763077309465,0.0831007493869255
4.49112,5.057374545006737,0.0826869783662897
4.493516000000001,5.057844867431299,0.0822740795099617
4.495904000000001,5.0582226420572445,0.081812318467984
4.498296,5.05901972556377,0.0813217479103157
4.500692000000001,5.059304952391098,0.0808116339103373
4.503080000000001,5.054003185859756,0.0803416237735216
4.505456000000001,5.050843289701692,0.0798421247540206
4.507864000000001,5.0459608320509295,0.0793438159238798
4.510248000000001,5.044011640706365,0.0788189925177704
4.512628000000001,5.0416903623094615,0.0782635839759521
4.5150320000000015,5.036855126486944,0.077710306632108
4.517416000000001,5.033510134731644,0.077111159058326
4.519796000000001,5.028302811856789,0.0765210986105402
4.5222000000000016,5.016577330063485,0.0759675381324602
4.524588000000001,5.000288568269907,0.0754865151673609
