Time,Force,Position
4.774724,3.868712304650466,0.1433380725845485
4.777107999999999,3.8661530212544775,0.1432429117268812
4.779488,3.862662572298711,0.1431699964131582
4.781892,3.861313993716221,0.1430250767135427
4.786659999999999,3.852098677632793,0.1428875894674254
4.789056,3.8468856671843294,0.1428438221390103
4.791443999999999,3.842464052668785,0.1427915752422494
4.793824,3.842046639646073,0.1426238383085528
4.796219999999999,3.8413496873696418,0.1424836706343102
4.798607999999999,3.837439929533295,0.1424504085402197
4.800999999999999,3.83874507800328,0.1422493523338741
4.803404,3.834975089793793,0.1422026310876797
4.805791999999999,3.840424209383472,0.1418679866832768
4.808172,3.851088235279484,0.1413665505148383
4.810567999999999,3.865756462668328,0.1407372225027884
4.812955999999999,3.8774914237509774,0.1401991072278494
4.815335999999999,3.892299420766684,0.1395706691393604
4.817731999999999,3.906316021849471,0.1389550867688043
4.82012,3.9115328240136726,0.1385784086643621
4.822499999999999,3.917820561364513,0.1381716629990724
4.824903999999999,3.923456672409295,0.1377642669076244
4.827288,3.930023949013855,0.1373351878276989
4.829672,3.9344493552451385,0.1369781131336658
4.832076,3.938595222222701,0.1366464654882428
4.834459999999999,3.9436722547600422,0.1362927892472703
4.836844,3.952753488790218,0.1358359678284632
4.839247999999999,3.9615551835666727,0.1354058829328733
4.841632,3.970636417596848,0.1349539606477804
4.844012,3.9812078956942414,0.1344327008942648
4.846415999999999,3.997785676030887,0.1337590378011955
4.848803999999999,4.014363456367532,0.1330869158723278
4.85118,4.033083107077454,0.1323457301383379
4.853583999999999,4.049660887414099,0.1316828446402388
4.855971999999999,4.0623742358847705,0.1311166058870112
4.858351999999999,4.077089685101859,0.1305059406946126
4.860748,4.091805134318947,0.1298965999283654
4.863131999999999,4.1020970731626205,0.1294252986841928
4.865512,4.10917620644638,0.1290441494693308
4.867912,4.122121872342528,0.1285183379440066
4.870295999999999,4.129992401559205,0.1281262262137638
4.872675999999999,4.135581290775744,0.1278116756051396
4.875075999999999,4.140378784059365,0.1275028841434009
4.87746,4.14359348547715,0.1272045878289408
4.91092,4.024240052664852,0.1271661294524556
4.913308,4.0186549551640525,0.1270718008034933
4.915688,4.014280562476751,0.1269349007420023
4.918084,4.012699666468783,0.1267456629802119
4.920471999999999,4.012049936020595,0.1265386631341438
4.922855999999999,4.015124867811519,0.1262642938214709
4.925252,4.018851425908502,0.1259958757133603
4.927635999999999,4.02551125031168,0.1256622932879985
4.930015999999999,4.032031305087997,0.1253422281358078
4.93242,4.038132050983734,0.12505592634366
4.934803999999999,4.044652105760051,0.1247324391411541
4.937188,4.057178462775618,0.124266339296544
4.939583999999999,4.0707757549778245,0.1237642102173415
4.941968,4.083302111993393,0.1232871499309841
4.944363999999999,4.093826368262543,0.1228635041791938
4.94676,4.103279689345056,0.1224748161027921
4.949148,4.107657873748097,0.1222114417088457
4.951527999999999,4.1141779285244136,0.1218884317547364
4.953924,4.114971220315201,0.1216813054177248
4.956312,4.117347303971826,0.1214650199505544
4.958692,4.120514783561368,0.1212439385872543
4.961092,4.1204694575909935,0.121113601461121
4.963475999999999,4.117211326060704,0.1210725169573889
4.96586,4.118097165650109,0.1209273138743207
4.968255999999999,4.118191609306595,0.1207859841087435
4.970639999999999,4.116283952216665,0.1206908725361196
4.973024,4.117449331059789,0.1205230384812327
4.975419999999999,4.119825414716412,0.1203167966906388
4.977807999999999,4.123272433559674,0.1200838413853045
4.980199999999999,4.130072027589712,0.1197547715794291
4.982599999999999,4.1376630175526685,0.119424790662236
4.984984,4.14260028046315,0.1191327886749126
4.987367999999999,4.150750348933547,0.1187619343156269
4.989764,4.16239276221758,0.11828689004401
4.992152,4.171241678822277,0.1178536594301077
4.994531999999999,4.178647573187999,0.1174157861851309
4.996932,4.188707194606196,0.1169402553870342
4.99932,4.195693780091338,0.116533886993011
5.001699999999999,4.206544797442453,0.1160492299631231
5.004096,4.217675354047286,0.1155443202178965
5.006484,4.229737076211901,0.1150267725575416
5.008864,4.24487183430957,0.1144427533889738
5.011264,4.25907542684746,0.1138684256160015
5.013647999999999,4.267272717146101,0.1134253360982305
5.016032,4.278403273750936,0.1129283061764151
5.018427999999999,4.285809168116658,0.1124887307891214
5.020815999999999,4.289210860989545,0.112132907714892
5.023208,4.291401849048936,0.1118187466110881
5.025603999999999,4.293453067481465,0.1115183456912
5.027992,4.295504285913994,0.111220004721093
5.030376,4.295553403600106,0.1109615311520061
5.032771999999999,4.294112277218999,0.1107631280884933
5.035156,4.291600215651255,0.1105910756537711
5.037539999999999,4.2926730466957626,0.1103799207054028
5.039936,4.2984017055391615,0.1101033495896972
5.042319999999999,4.30371105550198,0.1098600078092427
5.044716,4.310510649532018,0.1095596052859089
5.047111999999999,4.321454214681749,0.109174631789019
5.049499999999999,4.334539650204758,0.1087457525713377
5.05188,4.347625085727767,0.1083212906186349
5.054275999999999,4.359779355690997,0.1079113735260708
5.05666,4.368069193788255,0.1075628747796185
5.059039999999999,4.381434168564985,0.1071225473998906
5.06144,4.39787217927477,0.1066232985389004
5.063823999999999,4.412447858864998,0.1061531915680764
5.066204,4.428466560694201,0.1056858618547763
5.068608,4.44755829845646,0.1051594033081343
5.070996,4.461854438792967,0.1047014572545887
5.073375999999999,4.47321731282328,0.1042907817653682
5.075779999999999,4.481646920547399,0.103928155079759
5.078167999999999,4.493940960137489,0.1035090717773951
5.080547999999999,4.509447805287495,0.1030223322278294
5.082947999999999,4.522812780064224,0.1025827639368439
5.085332,4.527098416668648,0.1023068200348372
5.087711999999999,4.528730326220596,0.1020563158730392
5.090108,4.531433170959184,0.1017826556567043
5.092496,4.534927411630688,0.1015110833122856
5.094888,4.538142113048473,0.1012642403647777
5.097288,4.537212843346564,0.1010943159699806
5.099676,4.5332105377116,0.1009787833597137
5.102056,4.528277066516857,0.1008740552927691
5.104459999999999,4.527208027188087,0.1007144049082654
5.106844,4.524136887112902,0.1005880293760777
5.109224,4.518923876664439,0.1005039959997881
5.111627999999999,4.514642031775753,0.1004091432700931
5.114015999999999,4.514132070954425,0.1002097242337814
5.116395999999999,4.513622110133095,0.1000112840881048
5.118795999999999,4.5200496171107964,0.0997101553309932
5.12118,4.530621095208191,0.0993380582762037
5.123563999999999,4.54533654442528,0.0988964932468079
5.125967999999999,4.556047792149534,0.098518478769398
5.128351999999999,4.562894608007815,0.0981910309742329
5.130731999999999,4.568018862373401,0.0978700893826338
5.133136,4.577566627112399,0.0974536766459481
5.135519999999999,4.589907888530733,0.0970098207812659
5.137899999999999,4.602388919575927,0.0965568080591213
5.140308,4.609934583568509,0.0961736331002719
5.142696,4.611753484575561,0.0958587191504375
5.145075999999999,4.61557448632903,0.0955121844481558
5.147472,4.622608293642415,0.0951041683785958
5.149859999999999,4.631644201702216,0.0946667966603471
5.15224,4.6377468434558216,0.0942712344332565
5.154635999999999,4.640916218903233,0.09391507330315
5.15702,4.642502802484808,0.0935546539956398
5.159399999999999,4.641016350133326,0.0932441884900366
5.161803999999999,4.635106387408431,0.0930251499869019
5.164191999999999,4.626263158377341,0.092844951205421
5.166576,4.617280159719392,0.0926754512041322
5.168971999999999,4.604292959568608,0.0925626653713204
5.171356,4.590886450537242,0.0924790441386137
5.17374,4.57682831519982,0.0923836586374809
5.176135999999999,4.565703446168592,0.0922504268029818
5.17852,4.560305340122895,0.092053127819094
5.1809,4.554627694823477,0.0918759744239968
5.183303999999999,4.548018883964281,0.0917078677558735
5.185691999999999,4.541270303478225,0.091549562991814
5.188071999999999,4.537454989298363,0.0913546489360401
5.190468,4.54136853885045,0.0910709732719227
5.192856,4.546353023589174,0.0907698957974935
5.195235999999999,4.547053767581343,0.0905422475122007
5.197632,4.542819144520903,0.0903763506749635
5.200019999999999,4.537653355900683,0.090218173144455
5.2024,4.534210128773158,0.0900524926775279
5.2048,4.534351794257887,0.0898619550699924
5.207188,4.537426726048813,0.0896348077614123
5.209568,4.546647729705849,0.0893172422136699
5.211963999999999,4.557731064482441,0.0889815622151882
5.214351999999999,4.560014600340447,0.0887520572664327
5.216748,4.562158366571593,0.0885310330856165
5.219143999999999,4.558435600190348,0.0883826477367257
5.221531999999999,4.555364460115163,0.088245734902497
5.223912,4.549360053733782,0.0881454553461582
5.226311999999999,4.541633085859704,0.0880516284008321
5.228696,4.534045887612487,0.0879469415392584
5.23108,4.526458689365269,0.0878418361148998
5.233475999999999,4.519942426304689,0.0877179133902178
5.235863999999999,4.51370570249783,0.0875730223330645
5.238243999999999,4.501881985332303,0.0874756841602418
5.240643999999999,4.488056167420358,0.0874035400773572
5.243028,4.480516191001382,0.0872330237148705
5.245411999999999,4.480984617568075,0.0869599648389733
5.247815999999999,4.4834551448811855,0.0866604986530994
5.250199999999999,4.486344981074876,0.0863310567788441
5.252579999999999,4.492447622828482,0.0859538927811949
5.254988,4.493103040850279,0.0856084745477314
5.257371999999999,4.485750055886407,0.0853621979365369
5.259752,4.4776056749896185,0.085112499273408
5.262147999999999,4.476398761891859,0.0847785371535661
5.264535999999999,4.478404654354014,0.0843915453974977
5.266915999999999,4.484554517935863,0.0839406782355521
5.269312,4.491123690398292,0.0834577335890832
5.2717,4.498624028420501,0.0829644849688232
5.274079999999999,4.501049229763238,0.0825376597852075
5.276476,4.502543265546196,0.082118133812756
5.278864,4.500172869463179,0.0817375082399875
5.281259999999999,4.495148746327689,0.0813680910172574
5.283656,4.491055788751976,0.0809921923025855
5.286039999999999,4.48910470154954,0.0805800979648471
5.28842,4.489295484720382,0.0801336940729885
5.290824,4.482409030465336,0.0797767003198588
5.293212,4.468585108411259,0.0794982605502258
5.295588,4.454761186357183,0.0792188916953731
5.297987999999999,4.43879539392983,0.0789716167880363
5.300371999999999,4.414960968143671,0.0788057235499533
5.302756,4.39671353571618,0.0785986215533238
5.30516,4.384472405527941,0.0783200268761758
5.307543999999999,4.373302210526339,0.0780232848046188
5.309924,4.361340619591819,0.0777221851163227
5.312319999999999,4.347237158284023,0.0774531741062649
5.314707999999999,4.33141113548353,0.0771841580274179
5.317087999999999,4.320380710108789,0.0768747683354047
5.319484,4.312563090293963,0.0765176908908648
5.321875999999999,4.312753873464804,0.0760749246328138
5.324255999999999,4.313875822195425,0.0756261999152669
5.326652,4.31793103723224,0.0751481574001399
5.32904,4.32450020969467,0.0746735606169236
5.331435999999999,4.327996346224045,0.0742357372349809
5.333832,4.327208742006865,0.073857416099153
5.33622,4.322416936296852,0.0735198976079665
5.338599999999999,4.322700267266311,0.07312264483921
5.340996,4.323774994168688,0.0727260376417616
5.343384,4.326851821817482,0.0723109715133723
5.345759999999999,4.330068419093135,0.0718824309723646
5.348159999999999,4.334216181928568,0.0714419351794529
5.350547999999999,4.338363944764,0.0710044640973768
5.352928,4.338507506106599,0.0706097392773727
5.355323999999999,4.33758013226256,0.0702303313236793
5.357712,4.336512988791658,0.0698617822059988
5.360107999999999,4.337587715694036,0.0694631350519831
5.362503999999999,4.338522672969551,0.0690721074301199
5.364895999999999,4.333591097632679,0.0687324231636037
5.367276,4.326657421549389,0.0684131944137655
5.369671999999999,4.310644407293792,0.0681838664491897
5.37206,4.295562558597974,0.0679493624697476
5.374444,4.2786183787826,0.0677214811893872
5.376839999999999,4.261022572661167,0.067476470465419
5.379224,4.24663957209965,0.0671869957167423
5.381604,4.239194039337162,0.0668381337955893
5.384,4.235892477694368,0.0664415791942473
5.386387999999999,4.232590916051573,0.0660469875808472
5.388768,4.231850533662637,0.0655933824335416
5.391172,4.226314553847949,0.0651672687541837
5.39356,4.223711840339455,0.0647199319144201
5.395939999999999,4.225764954629854,0.0642546359080775
5.398336,4.228749234480031,0.0637898750827726
5.400723999999999,4.2337356150766245,0.063307167693013
5.403107999999999,4.236300586046221,0.0628670815211489
5.405504,4.239936492202457,0.0624157632847377
5.407887999999999,4.239428427238996,0.0620058884753194
5.410272,4.243436420447568,0.0615918932969424
5.412667999999999,4.24716487440242,0.0611947829505354
5.415052,4.247400983543636,0.0608552141457156
5.417447999999999,4.253503625297242,0.0604731683851354
5.419847999999999,4.253739734438458,0.0601277323689533
5.422232,4.2536963043259535,0.0598002187941618
5.424615999999999,4.253513104586588,0.059483623651885
5.427011999999999,4.250768725593367,0.0592250025678357
5.429396,4.244951310667089,0.0589970988158082
5.431779999999999,4.237643651673592,0.0588129004407682
5.434176,4.228054352679957,0.0586641697219295
5.436564,4.217766205552022,0.0585652535682542
5.438944,4.21106295103634,0.0584656116648139
5.441339999999999,4.203009222080297,0.0583985490752632
5.443727999999999,4.19323293163156,0.0583257437194173
5.446124,4.178661043757071,0.0582735357086029
5.448519999999999,4.162087055136164,0.0582347616899186
5.450907999999999,4.157013814314561,0.0580821456358051
5.453288,4.14979870311968,0.0579529870797353
5.455683999999999,4.1495210597238295,0.0577809363993982
5.458071999999999,4.147520854835282,0.0576043214773022
5.460451999999999,4.146451815506512,0.0574247712810138
5.462848,4.1508772217377965,0.0571769704297107
5.465236,4.154511232036162,0.0569221823637184
5.467615999999999,4.164942940506696,0.0566344106996704
5.470016,4.178307915283426,0.0563313205359378
5.472404,4.1885998541271,0.0560517955443541
5.474783999999999,4.198240166664715,0.0557519815762309
5.47718,4.205878378455915,0.055464485577199
5.479568,4.211654259127557,0.0551790214224557
5.481963999999999,4.2195720101724765,0.0548706049606222
5.48436,4.229491861963813,0.054550666838997
