Time,Force,Position
8.578984000000002,5.755102760690495,0.1589136882008678
8.581364,5.799046950023704,0.1585615386980463
8.583760000000002,5.827909290661093,0.1582850449461607
8.586148000000001,5.843412344095363,0.1580541391646409
8.588528,5.850676572976356,0.1578361222397859
8.590924000000001,5.8526805695806425,0.1576546718249823
8.593308,5.8599920202898765,0.1573912371986764
8.595687999999999,5.874193716969897,0.1570295206499788
8.598088,5.891281458127871,0.1566606426088806
8.600472,5.907949890405262,0.1563235211377441
8.602852000000002,5.927970897869431,0.1558990247197126
8.605248,5.94827144458732,0.1554558943551271
8.607636,5.970015013544183,0.1550070360477031
8.610016000000002,5.990687647314411,0.1545866198387257
8.612411999999999,6.014945173696888,0.1541135898158456
8.614799999999999,6.039435017504848,0.1536741273837982
8.617180000000001,6.068720458738556,0.1531474158787453
8.61958,6.100706848852983,0.152542765395068
8.621967999999999,6.130878129676097,0.1519198588857435
8.624348000000001,6.152668920461204,0.1514436740136415
8.62676,6.177952056059948,0.1508856096455084
8.629148,6.204026587591611,0.1503259665145658
8.631528,6.234896716549024,0.1496863227466581
8.633928000000001,6.266558241439356,0.1490437959228053
8.636312,6.295006960769773,0.148471036135563
8.638691999999999,6.322943823420991,0.1478848710770079
8.641108,6.345945319019598,0.147396371399058
8.643492000000002,6.367736109804706,0.1469464670685015
8.645872,6.3888752742837545,0.1465005087354829
8.648268000000002,6.404008136523554,0.1461641950340672
8.650652000000001,6.422865661002467,0.1457769525335435
8.653036,6.441862955108239,0.1453821642910313
8.655432000000001,6.461559097348313,0.1449470918036638
8.657820000000001,6.482186405148164,0.144499596976922
8.660216000000002,6.499089050708904,0.1441113654471225
8.662612,6.513849825896366,0.1437676531059588
8.665,6.523675234031215,0.143512253962492
8.667380000000001,6.52893736216579,0.1433645436619991
8.669775999999999,6.53671344772598,0.1431921745654035
8.672163999999999,6.548773274032724,0.1429300013431644
8.681712000000001,6.534902130150403,0.1429197394323549
8.684108000000002,6.531132141940917,0.1428932783984872
8.686496000000002,6.532157751157181,0.1427907136903837
8.688880000000001,6.534114525933224,0.1426743291790286
8.691284,6.534628278470292,0.1425605457687305
8.693667999999999,6.534350635074441,0.1424525140177388
8.696048000000001,6.544083495410672,0.1421704903831046
8.698444000000002,6.545668183134378,0.1420363949158274
8.700832000000002,6.549115201977641,0.1418767943448489
8.703212,6.553213847126962,0.1417216351877149
8.705616,6.555310391529865,0.1416004178870822
8.708003999999999,6.558338101492545,0.1414661955811989
8.710384000000001,6.564858156268864,0.1412533780581241
8.712788,6.575242642911155,0.1409812476494742
8.715176,6.584695963993667,0.1407199755902719
8.717556000000002,6.59400951544932,0.140468062116744
8.719952,6.601972592464612,0.1402541817969423
8.722336000000002,6.614079640599599,0.1399624820963138
8.724720000000001,6.633403695787337,0.1395413662693786
8.727115999999999,6.6513772765347134,0.1391550718129451
8.729504000000002,6.674146454707844,0.1386971122814266
8.731884,6.691700726574641,0.1383378063791545
8.734280000000002,6.703668005082769,0.1380577339119995
8.736668000000002,6.7180566932178944,0.1377219643071704
8.739060000000002,6.730443280606603,0.1374187996431244
8.741456,6.738685896875617,0.1371898373863788
8.743844,6.740130814972462,0.1370664469227118
8.746224000000002,6.745999243442721,0.1368523469010351
8.748632,6.748003240047006,0.1366966975777845
8.751016,6.749355610345234,0.1365384889637476
8.753395999999999,6.752710081389879,0.1363476791788943
8.755792,6.755924782807663,0.136164896391436
8.75818,6.755275052359474,0.1360394940634965
8.760560000000002,6.75276299079173,0.1359387938988064
8.762955999999999,6.754394900343677,0.135765771890325
8.765343999999999,6.755514953216428,0.1355816567706068
8.767724000000001,6.7579854805295385,0.1353624127662419
8.770120000000002,6.7633892741488415,0.1351012206540418
8.772508000000002,6.763438391834955,0.1349390092867393
8.774904,6.769773351014039,0.1346691243670561
8.7773,6.77238364795401,0.1344465389454555
8.779688,6.780208851200312,0.1341364601990849
8.782067999999999,6.7906877814990905,0.1337995316709427
8.784472000000001,6.801026942171006,0.1334736193978533
8.78686,6.815230534708897,0.1330956350535866
8.78924,6.833019019859041,0.1326782014766889
8.791644000000002,6.853601001688521,0.1322264113825828
8.794032000000001,6.872041113144721,0.1318137416153008
8.796412,6.8932747212802585,0.1313668551217106
8.798808000000001,6.912226689415657,0.1309663370974898
8.801196000000001,6.928385160871723,0.1305993578204194
8.80358,6.946685502701063,0.1301968506036662
8.805976000000001,6.966708406023101,0.1297786940105931
8.808364000000001,6.985008747852442,0.1293745224254608
8.810744,7.000515593002448,0.1290057691548941
8.81314,7.014951502965816,0.1286561941553477
8.815528,7.0289681040486025,0.1283313712834193
8.817908,7.037630029198197,0.1280999149781216
8.820312000000001,7.04778219841501,0.1278271591063036
8.822700000000001,7.052999000579214,0.1276259178246824
8.82508,7.0623597738631085,0.127360793193604
8.827484000000002,7.065993784161474,0.1271675686811617
8.829872000000002,7.067625693713422,0.1270030516238849
8.832252,7.065393171399397,0.1268883554537411
8.834648000000001,7.057294116472981,0.1268518620227732
8.837036000000001,7.050685305613785,0.1267749197250576
8.83942,7.043564638075391,0.1266860006593036
8.841816000000001,7.038446071283413,0.1265688238884109
8.844204000000001,7.032396338931658,0.1264619787546246
8.846584,7.025555210646986,0.1263579409036316
8.848984000000002,7.022718283855148,0.126197630919848
8.851372000000001,7.016016925197334,0.1260858812746704
8.853752,7.011177897659079,0.1259536925794812
8.856148000000001,7.008061431613518,0.125808080689821
8.858536,7.007738462247294,0.1256320973469013
8.86092,7.011140155120182,0.1254164108652809
8.863316000000001,7.012819286500373,0.1252136418251389
8.865704000000001,7.0162682012015045,0.1249561435980478
8.868084,7.019577346275775,0.1247063728382254
8.870484000000001,7.021675786536548,0.1244803993391917
8.872868,7.017628154931209,0.1243443319470749
8.875252,7.019307286311401,0.1241408490899793
8.877648,7.021545496199034,0.123907775437619
8.880036,7.025785806833083,0.1236468342005924
8.882416,7.0380345204528,0.1232770432389284
8.884816,7.047349967766323,0.1229459573212302
8.8872,7.057037502132182,0.1226353042535054
8.889584,7.068727137244457,0.1223010356442788
8.891988000000001,7.080556541983593,0.1219601210621265
8.894372,7.095458982655785,0.1215760386626249
8.896752,7.112503293701253,0.1211648883773405
8.899148,7.132620640679777,0.1207115719722641
8.901532,7.153297066165743,0.1202351257417423
8.903915999999999,7.177046527584763,0.1197210560721274
8.906312,7.19721109639153,0.1192379286651208
8.9087,7.210438197399268,0.1188387279068812
8.911096,7.2251555424742255,0.1184030709340245
8.913492000000002,7.24131590978816,0.1179715450548673
8.915876,7.259338608221648,0.1175246916511495
8.91826,7.280574112215054,0.1170302859173691
8.920660000000002,7.307024522514792,0.1164639194973957
8.923048000000001,7.3265374650155,0.1159805804458499
8.925428,7.346562264195407,0.1155098259315529
8.927831999999999,7.365795667442396,0.1150414805446125
8.930220000000002,7.38102486919655,0.1146264129970406
8.932604000000001,7.395462675017787,0.1142120671742536
8.934999999999999,7.407386523413408,0.1138095546420775
8.937388000000002,7.413583608823501,0.1134663888798748
8.939768,7.416847427927399,0.1131548084537404
8.942164000000002,7.419180081471518,0.1128527317924769
8.944552000000002,7.414435497589746,0.1126380534532673
8.946932,7.408899517775055,0.1124250694975345
8.949328000000001,7.398148631654035,0.1122806275054617
8.951716000000001,7.381810752174344,0.1121851677379803
8.954096,7.369337304560625,0.1120493124098865
8.956496000000001,7.363289468066739,0.1118231886797009
8.95888,7.357893257878909,0.1116026755544463
8.96126,7.348772385451967,0.1114140354472622
8.963664000000001,7.334855915599274,0.1112722688121845
8.966048,7.316004078693966,0.1111841260022051
8.968432,7.292216874736048,0.1111490529269308
8.970828000000001,7.274435973017381,0.1110448691872344
8.973216,7.256794840925572,0.1109334274341906
8.975591999999999,7.237803234393406,0.1108503026690851
8.978000000000002,7.21816000155518,0.110760656827977
8.980384,7.20131026539629,0.1106461559654914
8.982764,7.185671234050899,0.1105092769674228
8.985168000000002,7.174036404198341,0.1103261273202495
8.987556000000001,7.167616480652115,0.1100754701597067
8.989936,7.159054686732612,0.1098537937266444
8.992332000000001,7.15156382799975,0.1096161531726287
8.994720000000001,7.14286226445339,0.1093998597619296
8.9971,7.1363025712803045,0.1091528433559835
8.999504000000002,7.132396605159696,0.1088879518654165
9.001892000000002,7.125277833479169,0.1086679487691158
9.004272,7.113875321052091,0.1085068278495606
9.006664,7.09739767194554,0.1084054441533394
9.009052,7.086926325078239,0.1082356013235763
9.011436,7.081530114890413,0.1080055691120381
9.013832,7.083071372501613,0.1077001242648039
9.01622,7.086474961232372,0.1073776713321105
9.018616000000002,7.086293657350876,0.1070799515162805
9.021012,7.090396094215935,0.1067264934480011
9.0234,7.09813064552149,0.1063094580482954
9.02578,7.10744798869288,0.1058920495867747
9.028176000000002,7.1156943966776325,0.1054903551623255
9.030564000000002,7.125244057274501,0.1051017364918071
9.032948,7.132651847498091,0.1047423032357929
9.035344000000002,7.138848932908183,0.1044062258381803
9.037732000000002,7.147979284624471,0.1040418052004394
9.040112,7.159111737087177,0.1036559954869606
9.042508000000002,7.1723860599231575,0.1032436089021331
9.044896,7.186451778692057,0.1028312364328701
9.047276,7.198794935968258,0.1024259516749483
9.049676000000002,7.208484366191988,0.102032564069193
9.05206,7.221246832348771,0.1016044302004058
9.054444,7.239363974438748,0.1011057771233152
9.05684,7.254547850222528,0.100639162984321
9.059228,7.266938229326976,0.1001957832076929
9.061624000000002,7.277326507685005,0.0997766592386617
9.06402,7.29064805234923,0.0993324239115294
9.066408,7.30555238887929,0.0988880338533614
9.068788,7.314450423170101,0.0985059192695375
9.071196,7.323720544513249,0.0981465055032462
9.07358,7.332199269923479,0.0977881829371231
9.075964,7.340026369027651,0.0974234433322265
9.07836,7.349483481825903,0.0970224168344671
9.080744,7.356007328317959,0.0966441427442694
9.083128000000002,7.35945813887696,0.0962975025184488
9.085524,7.361186387943264,0.0959571617834013
9.087912,7.36170393219607,0.0956358254649963
9.090292000000002,7.359008670888959,0.0953521901237355
9.092688,7.356173639954988,0.0950751328709391
9.095076,7.358134206446769,0.0947621795220953
9.097460000000002,7.367032240737579,0.0943883471523175
9.099856,7.377140979841888,0.0939986719782933
9.102244,7.388832510812033,0.093613833704205
9.104624,7.3995928762224,0.093235125560826
9.107020000000002,7.411004867938825,0.0928638981919192
9.109408000000002,7.420274989281972,0.0925171860490547
9.111788,7.428613945065343,0.0921783262251969
9.114184000000002,7.436952900848713,0.0918399997837796
9.116572,7.446874648497919,0.0915029247759848
9.118956,7.4520007987213726,0.0911992586623348
9.121352000000002,7.45498507857155,0.0909186002942725
9.123740000000002,7.456339344727645,0.0906740800324169
9.126136,7.455551740510467,0.0904538765890065
9.128532,7.461561834465455,0.0901837888975299
9.13092,7.47078473398036,0.089879125973245
9.133304,7.479867863868406,0.089580531141524
9.1357,7.487880058569811,0.0892923623452921
9.138084,7.498825519577411,0.0889819606186815
9.140468000000002,7.510050519838733,0.0886595585996454
9.142864,7.517131548980359,0.0883784503530793
9.145252,7.520860002935211,0.0881393956606078
9.147628,7.522306816889926,0.0879301002333839
9.150036,7.517747328605389,0.0877693453309293
9.15242,7.51518994106727,0.0875925462897599
9.154804,7.509559517596095,0.0874423355738654
9.1572,7.504208633378641,0.0872793450232801
9.159588,7.497926583601409,0.0871212925422761
9.161968000000002,7.489642433077759,0.0869787543852258
9.164368,7.480706656248053,0.0868283727608736
9.166752,7.477777181657597,0.0866305104987638
9.169136000000002,7.478340051880776,0.0863874354288956
9.171532,7.48332643247737,0.0860948158753143
9.17392,7.485379546767769,0.0858217998579345
9.1763,7.484778934005693,0.0855580166749982
9.1787,7.484829947549674,0.085303129761915
9.181088,7.486091665907154,0.0850315382291592
9.183468,7.491916664264909,0.0847060576760174
9.185872,7.498021201876385,0.0843699839180935
9.18826,7.506127840234277,0.0840209586179405
9.190644,7.514374248219029,0.0836653424321237
9.19304,7.521829260270863,0.0833078880254547
9.195432,7.527561710830001,0.0829525830105093
9.197816,7.535575801389276,0.0825689882202702
9.200220000000002,7.5402373167617744,0.0822224237691057
9.202604,7.5522556088138835,0.081811295479922
9.204984,7.563994361612272,0.0814118057905962
9.207392,7.574662179224022,0.0810228034456645
9.209776000000002,7.589473967955466,0.0805999986411858
9.212156,7.60414598706005,0.0801830140684876
9.214552,7.612811703925383,0.0798094320047876
9.21694,7.61784530635022,0.0794843310346293
9.21932,7.62087680802864,0.0791746301582683
9.221724000000002,7.627632971946173,0.0788487888920133
9.224112000000002,7.633038661423348,0.0785449488342967
9.226492,7.635790623848048,0.0782475375982713
9.228888,7.639194212578805,0.0779590906058624
9.231276,7.640036622055704,0.0777089467457724
9.233656,7.638737161159327,0.0774782375080442
9.236052,7.632362563583478,0.077283226390672
9.23844,7.627990066754045,0.0770750943988261
9.24082,7.625759440297889,0.0768481597729088
9.24322,7.62404067052093,0.0766346531626555
9.245608,7.620040260743835,0.0764450715799822
9.247988,7.620323591713293,0.0762177818541771
9.250384,7.61539201637642,0.0760323123132089
9.252772,7.614883951412961,0.0758045817800585
9.255152,7.61637798719592,0.0755645662404968
9.257548,7.617872022978877,0.0753261732371638
9.259936,7.623090721000948,0.0750758456496331
9.26232,7.631382454956075,0.0748037894505776
9.264716,7.644889095217534,0.0744937523853641
9.2671,7.6562538651057155,0.0742012937065401
9.269484000000002,7.66575630387434,0.0739155900065268
9.27188,7.674467346710046,0.073626427993257
9.274268,7.679034418426058,0.0733652229137922
9.276648000000002,7.6858831301422095,0.0730825474423112
9.279044,7.6943618555524385,0.0727692379866695
9.281432,7.701769645776029,0.0724637957539052
9.283812,7.712250471932676,0.0721371285160285
9.286208000000002,7.720868966969768,0.071817144990743
9.288596000000002,7.727485361260439,0.0715095159877477
9.290976,7.73652316517811,0.0711736519952474
9.293376000000002,7.753988680962029,0.0707772713456206
9.29576,7.768520930439752,0.0703967211327276
9.298144,7.781051079171059,0.0700258352693334
9.300540000000002,7.79129958790223,0.0696806111415536
9.302928,7.8015480966333985,0.0693371008107303
9.305308,7.807792403871733,0.0690157918001276
9.30772,7.808869026631981,0.0686932254487449
9.310108,7.80808331827267,0.068375160199838
9.312504,7.803153638793666,0.0680844454132605
9.314900000000002,7.801576534501438,0.0677640927935092
9.317284,7.801210135022707,0.0674301579281346
9.319664,7.805779102596589,0.0670744563732596
9.322068000000002,7.821569278716054,0.066656501709964
9.324456,7.8301424477827695,0.0662820798220952
9.326836,7.834152336849212,0.0659493942392593
9.329236000000002,7.841375031475567,0.0655937218841325
9.331624,7.849668661288563,0.065231687622727
9.334004,7.857031125541781,0.064871092291517
9.3364,7.864393589794997,0.0645102988520928
9.338788,7.870824888488437,0.0641528451088028
9.341168,7.868828475315628,0.0638505844900012
9.343568,7.863759026209764,0.0635633918548991
9.345956,7.859620742663679,0.0632726759608849
9.348336,7.849615926505201,0.0630031294271358
9.350740000000002,7.832813412174556,0.0627562938314876
9.353128000000002,7.817081833030549,0.0625008510330636
9.355508,7.80172234093888,0.0622642643461272
9.357904,7.791298215899823,0.0620073157514316
9.360292,7.784366435674402,0.0617174273510123
9.362672,7.777294885822121,0.0614337692867055
9.365072,7.77008356634298,0.0611556405712388
9.36746,7.760078750184504,0.0608830699930746
9.36984,7.74178599178664,0.0606559474832984
9.372236,7.728847909321968,0.0603931906448026
9.374624,7.719122632417212,0.0601087214995504
9.377008,7.708466189952677,0.0598258135822515
9.379404,7.697018351555226,0.0595389004978278
9.381788,7.6914370457701615,0.0592340951580525
9.384172,7.685715970358239,0.0589340614479311
9.386568,7.678923959759679,0.0586403556662575
9.388956,7.676695229161392,0.0583090368722047
9.391352,7.679541635242577,0.0579548907244469
9.393748,7.684809450950761,0.0575765610780595
9.396136000000002,7.697945900017752,0.0571729582305571
9.398516,7.720021917630188,0.0567376011279874
9.40092,7.74396026636218,0.056301580420678
9.403308,7.77018025509431,0.0558474112502902
9.405688,7.794118603826303,0.0554154112342443
9.408084,7.809769010318909,0.0550222980549236
9.410472,7.821415215318679,0.0546435133964074
9.412852,7.831199089198894,0.0542663355166476
9.415248000000002,7.837909927146054,0.0539017375310528
9.417636000000002,7.841967038040739,0.0535312292599335
9.420016,7.84080924262909,0.0531853983535932
9.422416000000002,7.838860051284525,0.0528347823194331
9.424804000000002,7.832906658447125,0.0524962720855018
9.427184,7.826673726356004,0.0521687900502665
9.42958,7.813503326465855,0.0518618596760682
9.431968,7.803405962508761,0.0515427762249988
9.434348,7.79237743299189,0.051222935507907
9.436744,7.778927493848021,0.0509253197336889
9.439132,7.762404518771096,0.0506389875924483
9.441528000000002,7.744531069253813,0.0503683272807717
