Time,Force,Position
8.680216,5.419262817645656,0.1584012947925891
8.682599999999999,5.428387481788336,0.1582773128206744
8.684980000000001,5.436580980371237,0.1581731386645699
8.694548,5.4567360698886604,0.158138044480454
8.696935999999999,5.464789798844702,0.1580450012413241
8.699315999999998,5.473123067054464,0.1579330387660704
8.70172,5.487462637503476,0.1576822716435897
8.704108,5.501802207952488,0.157435034518195
8.706487999999998,5.520518066946671,0.1571167669591626
8.708884,5.542818818553108,0.1567384714726166
8.711267999999999,5.565538879040124,0.1563334317329681
8.713651999999998,5.5889577876614425,0.1558779980628419
8.716047999999999,5.613727170723119,0.1553801295347737
8.718431999999998,5.637425618598158,0.1549078090750225
8.720816000000001,5.6596338224059775,0.154491602688696
8.72322,5.679700155840521,0.1541324754283704
8.725603999999999,5.696693453342008,0.1538473053777366
8.727987999999998,5.709822318977522,0.1536422613967855
8.730383999999999,5.720949083866617,0.1534821468551357
8.732771999999999,5.73407794950213,0.1532795128247926
8.735152000000001,5.744413318458309,0.1531282177990888
8.737547999999999,5.759172197787902,0.152859599181323
8.739935999999998,5.772068745997939,0.1526258204376403
8.742332,5.786967394954391,0.1523452345270787
8.744728,5.795208115365536,0.1521970053772013
8.747116,5.802797209470622,0.1520484004047412
8.751896,5.8063821020828765,0.1519896864841414
8.759064,5.803263740179448,0.1519675816018927
8.763831999999999,5.803171192380829,0.1519272371348387
8.766228,5.805872141261547,0.1518391549953028
8.768616,5.814858931635237,0.1516107906614087
8.770999999999999,5.825335966076145,0.1513302623004796
8.773396,5.83809464051719,0.1509907033705951
8.775784,5.856068221264569,0.150537200520294
8.778163999999999,5.877394377198722,0.1500019280891533
8.78056,5.894204474960844,0.1495371558569839
8.782948,5.9152983134695205,0.1489743043497751
8.785331999999999,5.933179346418281,0.1484903756272923
8.787728,5.954133415300096,0.1479444907181662
8.790111999999999,5.978160520114968,0.1473402314753202
8.792495999999998,6.009916488661785,0.1465980647088048
8.7949,6.039530586835328,0.1459054228066413
8.797288,6.070215620195508,0.1451911489974313
8.799667999999999,6.105184394302243,0.1443820451908765
8.802068,6.137080132475921,0.1436443134129751
8.804452,6.170186575463098,0.1428732550066021
8.806835999999999,6.201151148076999,0.1421509408723516
8.809232,6.226109418451649,0.141547397417439
8.81162,6.24999675363966,0.1409624744752121
8.813999999999998,6.269879887334837,0.1404584966833131
8.8164,6.284036258044485,0.1400560008219325
8.818788,6.298192628754132,0.1396565300457298
8.821167999999998,6.312348999463779,0.1392600495018616
8.823564,6.321570003120814,0.1389522640084252
8.825956,6.325715870098378,0.1387395885516203
8.828335999999998,6.328651032262443,0.1385563467527572
8.830732,6.329444324053231,0.138419273478258
8.868955999999999,6.160939379032871,0.1383598903414713
8.871348,6.150233818882223,0.1383161357997273
8.873744,6.1424615250377705,0.1382237194612798
8.876128,6.138181576006956,0.1380472048544596
8.878524,6.131899526229724,0.137906218086173
8.880923999999998,6.126548642012269,0.1377515851345607
8.883311999999998,6.121337527421673,0.1375881837421251
8.885692,6.1151952472712985,0.1374377412648325
8.888084000000001,6.107050866374509,0.1373229243266828
8.890472,6.099697881410637,0.1372028694106243
8.892847999999999,6.0928567531259645,0.1370951317741577
8.895244,6.091230531147621,0.1368853211127604
8.897628,6.096402007341449,0.1365653813733822
8.900024,6.098220908348501,0.1363207234702572
8.902420000000001,6.100039809355553,0.1360763887867859
8.904804,6.104140350362742,0.1357805755440297
8.907183999999999,6.113595567303122,0.1353783698629979
8.909588000000001,6.128125920922974,0.1348875908533116
8.911972,6.141445569729329,0.1344288723297639
8.914352,6.159700585588295,0.1338894225245359
8.916756000000001,6.179538393313097,0.1333421681431761
8.91914,6.194301064358426,0.1328886272470366
8.92152,6.210274440217255,0.1324080048116336
8.923916,6.226759672755281,0.1319427410465147
8.926304,6.247249106786141,0.1314120954772002
8.928700000000001,6.265456900816863,0.1309315345305226
8.931104,6.279660493354753,0.1305138548604414
8.933487999999999,6.300242475184232,0.1300221888911936
8.935868000000001,6.325759824066324,0.1294519271966271
8.938263999999998,6.348343906642219,0.1289294146540668
8.940648000000001,6.373721485897447,0.128371547586052
8.943028,6.391882058099928,0.1279405193843803
8.945431999999998,6.404967493622936,0.1275981320720672
8.947816000000001,6.416050828399527,0.1272850450108553
8.950196,6.427925559109035,0.1269695245593637
8.952599999999999,6.439101441684243,0.1266973148526589
8.954983999999998,6.4455742746323175,0.1265316326054981
8.957364,6.448974071647334,0.1264187265718327
8.959760000000001,6.450092228662215,0.1263532799375194
8.962148000000001,6.449999680863598,0.1263160998379831
8.964528,6.450326441945563,0.1262547929032823
8.966931999999998,6.450513433400666,0.1262014225287357
8.969316000000001,6.453354151908245,0.126122743443342
8.971696,6.457265805602461,0.126025607359605
8.974096000000001,6.460246293736902,0.1259403394424886
8.97648,6.465787961125198,0.1257938336326948
8.978875999999998,6.477847787431943,0.1255701810208407
8.981271999999999,6.4815271237006815,0.1254456983360313
8.983655999999998,6.48548599922314,0.1253069383453638
8.986036,6.489444874745598,0.1251678086758214
8.988432000000001,6.492100497655944,0.125019550659519
8.990820000000001,6.4987603220591215,0.124811553902719
8.9932,6.505559916089157,0.1245949870398104
8.995596,6.517294877171807,0.1243080104565806
8.99798,6.529169607881317,0.1240149842392145
9.000376000000001,6.539741085978711,0.1237123809616873
9.00278,6.553013512956824,0.1233416875506652
9.005163999999999,6.569498745494852,0.1229193750875236
9.007547999999998,6.586403286913461,0.1224697437864886
9.009944,6.60251643239915,0.1220247048559351
9.012327999999998,6.618629577884842,0.1215831527288565
9.014708,6.635953428184032,0.1211152284862578
9.017112,6.648621450684328,0.1207029758163425
9.0195,6.658495976505291,0.1203231600844489
9.02188,6.666647940833556,0.1199569696440795
9.024284,6.672658034788545,0.1196273201960395
9.026668,6.678435811318057,0.1192730409058336
9.029048,6.689800581206239,0.1188583655457775
9.031452,6.699954646280921,0.1184720740286805
9.033836,6.713321516915519,0.1180358155750029
9.036215999999998,6.725337913109759,0.1176321776949538
9.038624,6.740706884490773,0.1171736507463718
9.041008,6.756355395125509,0.1166995232501921
9.043387999999998,6.771771588334769,0.1162021074005879
9.04578,6.786396385611109,0.1157087940962898
9.048163999999998,6.800741643633728,0.1152295888661952
9.050548,6.8150869016563504,0.114754103655742
9.05294,6.822494691879941,0.1143645723477463
9.055328,6.833255057290309,0.1139189348142354
9.057724,6.844015422700675,0.1134741249517159
9.06012,6.850771586618208,0.113079216041913
9.062504,6.854874023483267,0.112702753323385
9.064884,6.856974359601908,0.1123498394198051
9.067279999999998,6.861076796466966,0.1119720668794363
9.069667999999998,6.862897593331888,0.1116327114576146
9.072052,6.864718390196809,0.111292729644983
9.074452,6.8613242807553965,0.1110274518637326
9.07684,6.855695753142092,0.1107596556984321
9.07922,6.846342563289674,0.1105267759713114
9.081624,6.830983071198005,0.1103687226811606
9.084008,6.816834283919834,0.1101864100304941
9.086391999999998,6.798681295148829,0.1100528598477763
9.088788,6.782530407124241,0.109893519976804
9.091171999999998,6.7679623109654905,0.1097305688579825
9.093552,6.752602818873822,0.1095678017037597
9.095956,6.738733570849372,0.1093668754780351
9.09834,6.722722452451645,0.1091962575323847
9.10072,6.709644600360112,0.1089928128286466
9.103124,6.699500014574776,0.108757495347187
9.105508,6.688703802483381,0.1085152608491407
9.107891999999998,6.680980626325042,0.1082335996203514
9.110292,6.678984213152233,0.107896790815861
9.11268,6.680200605539339,0.1075133336101783
9.115059999999998,6.682627702739944,0.1071100780443726
9.117451999999998,6.690549245500602,0.1066250583576782
9.119839999999998,6.700892197888257,0.1060975612398936
9.122236,6.714447955835828,0.1055240201439034
9.12464,6.731728376022514,0.1049246131771438
9.127024,6.749939961768976,0.1043137170282771
9.129404,6.774018080127829,0.1036417575794216
9.1318,6.799306903300183,0.1029522785311099
9.134184,6.825387122405452,0.1022632144636691
9.136568,6.850536175950944,0.1015860849381209
9.13896,6.867676826510768,0.1009957037105566
9.141348,6.886260499309569,0.1004134279436634
9.143728,6.905356028787566,0.099848251185061
9.146132,6.925522493452204,0.0992694214712849
9.14852,6.94596849737056,0.0986764355900054
9.150899999999998,6.958266328676388,0.0981775480443314
9.153296,6.970284620728498,0.097692487591756
9.155679999999998,6.981511516847689,0.0972081528884277
9.158076,6.989805146660683,0.0967550976030342
9.160472,6.997959006846818,0.0963102227029528
9.162856,6.9988958599802045,0.095946260583957
9.165235999999998,7.000204800165929,0.0956064412112059
9.167632,6.998812791470935,0.0953213569947158
9.17002,6.99728101314908,0.0950434312488349
9.172412,6.989742932587975,0.0948244191358854
9.174808,6.984346722400147,0.0945784510880806
9.177192,6.977227950719622,0.0943386571277251
9.179572,6.967827539038961,0.0941313427787612
9.181976,6.959637832171797,0.0939043522928129
9.184364,6.951028816424053,0.0936974119337719
9.186744,6.952709843662114,0.0933836488217017
9.189148,6.954949949407615,0.0930444736475699
9.191536,6.956538428847059,0.0926987635930099
9.193916,6.957055973099864,0.0923654092985009
9.196319999999998,6.958085374031866,0.0920462052310287
9.198707999999998,6.963910372389623,0.0916905709090104
9.201088,6.970806305934017,0.0913226693811363
9.203492,6.979285031344248,0.0909576154845459
9.205875999999998,6.987623987127616,0.0905999683568366
9.208256,6.995823173284125,0.0902496992650386
9.21066,7.010168431306746,0.0898378014206226
9.213048,7.021999731903751,0.089432365959409
9.215428,7.033039636567838,0.0890240980803398
9.217823999999998,7.044731167537984,0.0886249885078919
9.220211999999998,7.056934555187326,0.0882374505351095
9.222592,7.068578864329228,0.0878773235384791
9.224987999999998,7.079012468657632,0.0875364557258127
9.227372,7.092379339292229,0.0871742260967499
9.229752,7.102393634740053,0.0868547431196005
9.232148,7.113758404628233,0.0865114561018889
9.234536,7.118557793769724,0.0862482365084965
9.236916,7.1189336725378,0.086037968727158
9.239312,7.1179590768655165,0.0858523714157479
9.2417,7.120988682686067,0.0856343941859417
9.24408,7.127231094066533,0.0853835217956659
9.24648,7.131611174327444,0.0851428290260351
9.248868,7.135851484961493,0.0849090200411934
9.25126,7.139952025968683,0.0846825509261419
9.253656,7.144983732535651,0.0844519976826096
9.25604,7.148153107983062,0.0842305690617156
9.258416,7.150903174549892,0.0840292573799692
9.260812,7.154304867422781,0.083836742584372
9.263196,7.159708661042086,0.08362837100583
9.265592,7.162458727608916,0.0834272650019249
9.267988,7.167630203802744,0.0831910647593342
9.270372,7.173220988877152,0.0829360092090403
9.272752,7.181605270630896,0.0826682394341347
9.275156,7.184774646078306,0.0824481912054693
9.27754,7.19315892783205,0.0821811770576866
9.27992,7.198050864772157,0.0819591323908684
9.282316,7.202011636152486,0.081740584344003
9.284704,7.209045443465871,0.0814950622885083
9.2871,7.217150185965893,0.0812386550303444
9.289504,7.218037921413168,0.0810452844855046
9.291892,7.214921455367607,0.0808828490244016
9.294272,7.213667320441603,0.0807117939530147
9.296676,7.213344351075379,0.0805367709078672
9.29906,7.212229985776236,0.0803599807622637
9.30144,7.210184454917315,0.0801876964435839
9.303836,7.210792651110868,0.080009038246071
9.306223999999998,7.2107492209983635,0.0798223327934693
9.308604,7.207632754952803,0.079660379820124
9.311008,7.2065183896536595,0.079484472216231
9.313392,7.209128686593631,0.079292594201009
9.315775999999998,7.2145324802129345,0.0790900417804401
9.318172,7.223800705698212,0.0788677102237583
9.32056,7.231346369690795,0.0786480647761782
9.32294,7.243175774429931,0.0783882991191634
9.325335999999998,7.251000977676234,0.0781572696111943
9.32772,7.26324969129595,0.0778812958743549
9.3301,7.277640275288944,0.0775851843761638
9.332496,7.290959924095299,0.0772989525355949
9.33488,7.30721283920785,0.0769979069711
9.337276,7.32947205655965,0.0766560614583083
9.339671999999998,7.351591504284592,0.0763199915135918
9.342059999999998,7.373710952009533,0.0759859731088245
9.34444,7.394899234174696,0.0756569938784565
9.346832,7.416227285966719,0.0753231379426354
9.349216,7.434482301825687,0.0750108313643279
9.351612,7.449804051378459,0.0747148083260139
9.354008,7.46484626167751,0.0744316538656059
9.356391999999998,7.480028241603423,0.0741408546136604
9.358776,7.491997415969419,0.0738796305299413
9.361176,7.501312863282941,0.0736236464051537
9.363563999999998,7.505692943543851,0.0733973463618925
9.365944,7.503926951938649,0.0732157873772837
9.368348,7.501881421079727,0.073046324413973
