Time,Force,Position
9.881488,5.734165251822206,0.1582648828052281
9.886272,5.717179537752196,0.1579834635692243
9.88866,5.707033056108989,0.1579365240997305
9.89104,5.701914489317012,0.157820619604649
9.893436,5.701591519950787,0.1576058035384719
9.895824,5.702479255398059,0.1573543954256526
9.898204,5.697360688606084,0.1572376756987894
9.9006,5.69037979069455,0.1571553597505794
9.902988,5.689777282074603,0.1569624863352499
9.905368,5.686613594200801,0.1568517101988089
9.907768,5.690247604499166,0.1566034938242709
9.910152,5.698537442596423,0.1562688075988053
9.912536,5.70575634550704,0.1559573957080489
9.914932,5.712323622111602,0.1556435668315268
9.91732,5.722755330582135,0.1552485680497497
9.9197,5.734769830918506,0.154840801660609
9.9221,5.753954116479382,0.1543137740189135
9.924484,5.770856762040122,0.1538567386953315
9.92688,5.786129393906781,0.1534669440434775
9.929276,5.806989019132111,0.1529828132109071
9.931664,5.829990514730717,0.1524503262266615
9.934044,5.8571359814490185,0.1518226337733758
9.936448,5.882698656301484,0.1512125767295148
9.938836,5.90570015190009,0.1506830593194476
9.941216,5.923346971565504,0.1502849313123539
9.943612,5.941785187163837,0.1498852120476326
9.946,5.963156669068364,0.1494280423695832
9.94838,5.983037906905674,0.1490206092360175
9.950776,5.996261216197674,0.1487385414808445
9.953164,6.013768266236228,0.1483581146895419
9.955548,6.027410884408807,0.1480551889210176
9.957944,6.042124437768026,0.1477310694262975
9.960328,6.064846394112915,0.14725173300622
9.962724,6.090361847137136,0.1467300030561135
9.965116,6.116296609041938,0.1461857056594794
9.967504,6.1425109102004605,0.1456304452783114
9.969884,6.164069383560093,0.1451520954091905
9.97228,6.184696691359945,0.1446896214131198
9.974664,6.206534703973294,0.1441961105351481
9.977044,6.223577119160894,0.1437904045865373
9.979444,6.237546498415439,0.1434464077953408
9.981832,6.2505847121102045,0.1431194877681714
9.984228,6.264414321737887,0.1427881966941681
9.986624,6.280525571365709,0.1424027514891643
9.989012,6.300361483232642,0.1419604052996505
9.991392,6.316984589539661,0.1415873829673627
9.993788,6.3333281565929616,0.1412339376237459
9.996176,6.355957565139229,0.1407570373466296
9.99856,6.381660009618553,0.1402211373226937
10.000956,6.404149648537963,0.1397571355510834
10.003344,6.4274306833902894,0.139290374005195
10.005724,6.447498912682701,0.1388910676392221
10.008116,6.464354336415197,0.1385648233106176
10.010504,6.480138824961056,0.1382630996464925
10.012884,6.493641673506776,0.1380127713133341
10.015284,6.505142421306081,0.1377981917922507
10.017668,6.522137614665437,0.1374738259328508
10.020068,6.542625152838428,0.1370752829480866
10.022464,6.561250359891863,0.1367023488576665
10.024852,6.579735797318439,0.1363378002167016
10.027232,6.599431939558513,0.1359443636865592
10.029628,6.61847645549253,0.1355494039533805
10.032016,6.639942381053544,0.1351029966745576
10.0344,6.6647608818013335,0.1345962582181888
10.036796,6.688276129937007,0.1340848183732059
10.03918,6.712350456580122,0.133540312766031
10.041564,6.73470222173054,0.1330120803763173
10.04396,6.751187454268568,0.1325737572655794
10.046348,6.767672686806597,0.1321383409952632
10.048728,6.784577228225205,0.1316803846732973
10.051124,6.802552704830451,0.1312068428510687
10.053512,6.823089360689556,0.1306726808388354
10.055908,6.839901354309547,0.1301847699819592
10.058304,6.854990786436843,0.1297126982731729
10.060692,6.872361858564275,0.129195690480843
10.063072,6.888941534758788,0.1286821824813402
10.065472,6.898443973527414,0.1282803767743424
10.06786,6.902591736362846,0.1279737891879585
10.07024,6.909021139198416,0.127622854070287
10.072636,6.916940786101204,0.1272317225121378
10.075024,6.927933468937048,0.126796143156658
10.077408,6.940788482892449,0.1263420374335872
10.079804,6.950710230541656,0.1259308133455656
10.082192,6.951273100764835,0.1256656586090037
10.084576,6.949973639868457,0.1254209800393607
10.086976,6.950396740464776,0.1251631920691937
10.08936,6.95310148106123,0.1248627951808183
10.09174,6.960089962404242,0.1244923397196992
10.094144,6.965216112627696,0.1241428649893436
10.096532,6.971413198037789,0.1237773514330194
10.098912,6.974165160462489,0.1234380100169102
10.101316,6.97477525251391,0.1231337752398211
10.1037,6.978737919752109,0.1227705617685457
10.10608,6.983911291803803,0.1223830050279258
10.108484,6.987082563109085,0.122022993007412
10.110872,6.991324769601001,0.1216459228643344
10.113248,6.999571177585754,0.1212145040863438
10.115656,7.009168060010863,0.1207496854403552
10.11804,7.017414467995615,0.1203182675494811
10.12042,7.021656674487534,0.119939982058561
10.122824,7.022965614673256,0.119600111488547
10.125212,7.021481058179644,0.1192895347777308
10.127592,7.01999650168603,0.1189792367028401
10.129988,7.026008491498886,0.1185512538607627
10.132372,7.036816078737495,0.1180710863311679
10.134756,7.045901104483408,0.1176033012493558
10.137152,7.05391519504268,0.1171538838425379
10.139536,7.058856249668898,0.1167479346111793
10.141916,7.065147778735474,0.1163119322399535
10.14432,7.0702286029885535,0.1159005704158187
10.146708,7.074890118361051,0.1155088239958618
10.149088,7.080902108173908,0.115087134119615
10.15148,7.084492688359767,0.1147123469948113
10.153868,7.087803729291907,0.1143523851485267
10.156252,7.094327575783962,0.1139465425260583
10.158648,7.101922357462657,0.1135267354575337
10.161036,7.105792476902236,0.1131407349546371
10.163416,7.10873143078204,0.1127622947206195
10.165812,7.111158527982643,0.1123712199514475
10.1682,7.117450057049219,0.1119385434449177
10.170596,7.124021125369519,0.1114929935656584
10.172992,7.132594294436235,0.1110248303203951
10.17538,7.139305132383395,0.1105729292848385
10.17776,7.142803164770638,0.1101683687509725
10.180156,7.139363729358852,0.1098419471256319
10.18254,7.132851258014012,0.1095524311150361
10.18492,7.121263649989698,0.1093240864084254
10.187328,7.1092567330848055,0.1091164408557229
10.189716,7.097110046553051,0.1089151359703909
10.192096,7.0831010289017415,0.1087296871456003
10.194492,7.072165047183487,0.1085050194066957
10.19688,7.060669986957792,0.1083081598945018
10.19926,7.046521199679621,0.1081279456428693
10.201664,7.02664564941592,0.108003954823894
10.204052,7.00062402728611,0.1079574261522812
10.225556,6.764466965768158,0.1079442107028702
10.227936,6.741843244795496,0.1079115139960016
10.230332,6.727367696435361,0.1077781215718519
10.23272,6.719969385501116,0.1075599993140749
10.2351,6.708986181954618,0.1073655188243643
10.237504,6.6977234391544,0.1071850190562141
10.239892,6.684598365234624,0.1070196198006037
10.242272,6.669750729822152,0.1068621759534917
10.244668,6.655182633663402,0.106689730120249
10.247056,6.648343401236597,0.1064391885084751
10.249436,6.651235133288157,0.1060877491776196
10.25184,6.658922462765469,0.1056883167300618
10.254228,6.661814194817029,0.1053333162718669
10.256608,6.662424286868452,0.1050174384137729
10.259004,6.6673181196664295,0.1046403793349678
10.261392,6.674353822837683,0.1042336615870394
10.263772,6.682600230822435,0.1038049532131672
10.266168,6.692848739553605,0.1033540340557154
10.268556,6.702026313098135,0.1029165507722828
10.270936,6.7109243473889455,0.1024943803605653
10.273332,6.719542842426034,0.1020878285393273
10.27572,6.728812963769182,0.1016898924213274
10.2781,6.731657473992499,0.1013821220891955
10.280504,6.733431049029177,0.101090792275192
10.282892,6.7441441926113,0.1007057145020148
10.285272,6.753646631379926,0.1003418968260685
10.287668,6.76873606350722,0.0999340064750156
10.290056,6.785268517873492,0.0995342952464403
10.292452,6.800730037053124,0.0991494436554241
10.294844,6.810185253993506,0.0988308639007616
10.297232,6.815636269441054,0.0985570988874249
10.299612,6.822437759328962,0.0982577001650905
10.302008,6.835897177762177,0.0979025779497747
10.304396,6.846423329889197,0.0975734196808776
10.306776,6.856669942762498,0.0972603851773434
10.30918,6.867987490822437,0.0969365297238056
10.311568,6.878885730001794,0.0966343284926813
10.313948,6.885779767688318,0.0963716423465475
10.316352,6.895607071681037,0.0960822644457525
10.31874,6.904503210113978,0.0957992822271839
10.32112,6.910186542987003,0.095555760454983
10.323516,6.913728005486752,0.095339539489753
10.325904,6.9211338998524745,0.0950901588790348
10.328284,6.924116283844781,0.0949013554534212
10.330688,6.921604222277036,0.0947877529308149
10.333076,6.920023326269069,0.0946675103868875
10.335456,6.918442430261102,0.094547892498218
10.337852,6.91378849832008,0.0944611724309208
10.34024,6.909925962311976,0.0943747959793797
10.34262,6.907785987796569,0.0942823114769595
10.345016,6.906437409214079,0.0941904531134571
10.347404,6.902387881750872,0.0941526605597958
10.349784,6.8971276494741645,0.0941347407754758
10.352188,6.89666301462321,0.0940787898488456
10.354576,6.897920941264952,0.0940176624317762
10.356956,6.89475535753328,0.0940149459316932
10.359356,6.893452104921164,0.0940000180003568
10.36174,6.895873514548161,0.0939607362060935
10.36412,6.898946550481217,0.0939292054714002
10.366524,6.903881917533829,0.0938857551083218
10.368912,6.913892421265913,0.0937920073595765
10.371292,6.924973860184636,0.0936853981973171
10.373692,6.9352639031704415,0.0935790974552853
10.376076,6.9519795572760765,0.0933972577968672
10.37846,6.97097685138185,0.0931836482847709
10.380856,6.992255785487759,0.0929398153476793
10.383244,7.009390748473976,0.0927396687702928
10.385624,7.030669682579887,0.092496336028173
10.38802,7.053810947805354,0.0922429059156262
10.390408,7.081375723404236,0.0919370786197903
10.392788,7.107869563816478,0.0916444534241861
10.395184,7.135574109042219,0.0913335907879991
10.397572,7.164629128708319,0.0910002939906675
10.399968,7.19382391800128,0.0906640908143271
10.402364,7.2182231098684895,0.090362738516209
10.404752,7.243833006549197,0.0900411049346565
10.407132,7.267580572110347,0.0897322112354596
10.409532,7.290816280992302,0.0894107051046738
10.411916,7.310606866888863,0.0890984002798532
10.4143,7.331608157598922,0.0887704950412573
10.416704,7.353680383495621,0.0884350808439193
10.419092,7.379756810885152,0.088069835186686
10.421472,7.402899971968488,0.0877265007532617
10.423868,7.423761493051687,0.0874157096262109
10.426256,7.443691848575107,0.0871113494629989
10.42864,7.458686837045915,0.0868445570696845
10.431036,7.479967667009695,0.0865186834680889
10.43342,7.499525935480778,0.0861985240090184
10.435804,7.515499311339608,0.0858919888857149
10.438208,7.523044975332191,0.0856673850607963
10.440596,7.534222753765269,0.0853934930937488
10.442976,7.541955409212954,0.0851256535194593
10.445372,7.546894567981305,0.0848726370446515
10.44776,7.551042330816737,0.0846194949704971
10.45014,7.559473834398724,0.0843244030691491
10.45254,7.570047208353987,0.0840087397383754
10.454928,7.57596475451036,0.0837135294040397
10.457308,7.580811365480093,0.0834289999329702
10.459712,7.586589142009605,0.0831392412315868
10.4621,7.586360616299865,0.0828940905988818
10.464484,7.580265557977737,0.0826878184073232
10.46688,7.5673728014834385,0.0825244649090268
10.469268,7.557553080922196,0.0823354512033618
10.471648,7.546010798868257,0.0821488201410589
10.474044,7.535539452000957,0.0819517164691766
10.476432,7.528001371439852,0.0817350111589952
10.478816,7.512734427146801,0.0815640763928367
10.481212,7.500400749159942,0.0813744587037856
10.4836,7.489929402292643,0.0811760249303877
10.48598,7.486023436172033,0.0809099516648708
10.488376,7.472618822998537,0.0807286339866424
10.490764,7.461728167250659,0.0805464447347037
10.493144,7.450557972249057,0.0803759113632839
10.495544,7.434592179821704,0.0802311364868501
10.497928,7.414482416274657,0.0801203210328425
10.500308,7.392230782354332,0.0800291437020979
10.502708,7.384785249591845,0.0798420701879767
10.505092,7.380272983135551,0.0796375290094472
10.507488,7.376691882239037,0.0794289479532031
10.509884,7.379256853208633,0.0791729887373482
10.512272,7.386757191230841,0.0788859840432176
10.514656,7.39439729887991,0.0785908682315446
10.517052,7.400966471342339,0.0783065679152564
10.51944,7.40767541343163,0.0780159688256744
10.521824,7.410519923654945,0.0777460718349869
10.52422,7.4144353690649,0.0774671846450959
10.526608,7.422075476713969,0.0771724487540975
10.528992,7.422498577310288,0.0769336022188762
10.531388,7.424132382720106,0.0766796642173365
10.533776,7.423344778502926,0.0764578519906369
10.536156,7.431916051711773,0.0761612866939095
10.538556,7.4395561593608415,0.0758680920756232
10.54094,7.44733603663677,0.0755683949949978
10.54332,7.459631972084731,0.0752562301772063
10.54572,7.474069777905968,0.074924616027161
10.548108,7.488647353354065,0.0745864875439294
10.550488,7.48641672689791,0.0743515144311439
10.552884,7.478459337456224,0.0741424455584909
10.555272,7.470362178387678,0.0739393363569665
10.557656,7.460262918572715,0.0737490423007468
10.560052,7.44629922689178,0.0735774777254892
10.56244,7.437922528569514,0.0733863366191083
10.564824,7.428614664687468,0.073198051614837
10.56722,7.419818657484622,0.073024234447931
10.569608,7.414607542894028,0.0728432850153295
10.571992,7.407394327557018,0.0726745221370667
10.574388,7.400320881846866,0.0724996567918108
10.576776,7.399533277629686,0.0722759937402145
10.57916,7.396464033412369,0.0720764859799971
10.581556,7.391392688448636,0.0718885780166272
10.583944,7.38003550199193,0.0717484936467444
10.586328,7.371891121095141,0.071581505590487
10.588724,7.363886509825212,0.0714080352259377
10.591112,7.355090502622365,0.0712316075959989
10.593496,7.346154725792657,0.071060925931366
10.595892,7.338150114522728,0.0708870784952455
10.598284,7.334661561424831,0.0707030478290422
10.60066,7.336620232058744,0.0705072325776833
10.603056,7.339929377133014,0.0702911023999769
10.60544,7.3409568822071485,0.0700982977056821
10.60782,7.341844617654422,0.0699106594957493
10.610236,7.337936755675944,0.0697434601992066
10.61262,7.333889124070605,0.0695818882031389
10.615,7.328398470226291,0.0694073986796997
10.617404,7.325049686755253,0.0692162287818936
10.619788,7.323283695150053,0.0690316295521623
10.622168,7.322960725783827,0.0688600929196992
10.624572,7.321706590857824,0.06869203109453
10.626956,7.32031268630496,0.0685295116264868
10.629336,7.321060652125373,0.0683495472397088
10.63174,7.327814920185037,0.0681364460735545
10.634124,7.329494051565229,0.0679540366517435
10.636504,7.335829010744312,0.0677602624549201
10.638908,7.340161869176978,0.0675770523750571
10.641292,7.344354957982785,0.0673999540627155
10.643672,7.351621082721646,0.0672051115549734
10.646076,7.364381653020562,0.0669641034060383
10.64846,7.375559431453639,0.0667172995984472
10.65084,7.382453469140164,0.0665027895454722
10.653236,7.392420542759744,0.0662697046351298
10.65562,7.405181113058658,0.0660297623374727
10.658,7.419012618544212,0.0657811221539164
10.660396,7.434846224776182,0.0655226292700565
10.662784,7.452402392500849,0.0652657028992861
10.665164,7.463021092426487,0.0650418494719408
10.66758,7.469263503806953,0.0648164692528171
10.669964,7.474994058508222,0.0645768778086778
10.672344,7.476161333209215,0.0643804960986112
10.674748,7.478259773469989,0.0641817253955298
10.677132,7.480497983357622,0.0639773746195312
10.679512,7.477661056565782,0.0638013115112389
10.681904,7.479619727199694,0.0636089750638897
10.684292,7.474640930034575,0.0634486653863074
10.686672,7.474737269548931,0.0632611949638864
10.689068,7.474973378690147,0.0630680342730456
10.691456,7.469994581525031,0.0629079949116744
10.693836,7.460592273986499,0.0627845501239356
10.696252,7.449979261634469,0.0626741327677356
10.69864,7.444441385961912,0.0625370149883244
10.70102,7.437320718423519,0.0623918739358823
10.703424,7.428757028646149,0.0622328860468925
10.705808,7.422474978868917,0.0620531119559007
10.708188,7.416612237972265,0.0618565934568524
10.710584,7.410097870769555,0.0616500242761048
10.712972,7.406004913193842,0.0614159033329251
10.715352,7.403914056364545,0.0611712327475592
10.717748,7.391580378377688,0.0609411545566252
10.720136,7.377291821472658,0.0606780373682172
10.722532,7.3582548889701185,0.0603865177816937
10.724928,7.332839567175991,0.0600965710672564
