Time,Force,Position
10.345576,1.4125317515043831,0.1078884492465337
10.347955999999998,1.4185852755718769,0.1073958641949559
10.350352,1.4274322963187056,0.1068109247976038
10.35274,1.4344169859459777,0.1062832754857739
10.355123999999998,1.4414016755732493,0.105769104586511
10.357524,1.4494573003871598,0.1051869781160383
10.359912,1.459794565201208,0.1044388396954537
10.362291999999998,1.470411369268976,0.1036261721441165
10.364692,1.4758132670304116,0.1031052143835474
10.36708,1.4825656392322066,0.1024458406725271
10.369459999999998,1.4871761410607245,0.1018992856296851
10.371864,1.4912275643818012,0.1014772702586694
10.374248,1.4967220099418537,0.1011027347929681
10.410088,1.5102229626297057,0.1006234988154906
10.412468,1.515809955988375,0.1004601028004711
10.414864,1.5212571797201846,0.1003273190681516
10.417252,1.5359235112511604,0.0997935144804073
10.419631999999998,1.553151022035994,0.0990570741393638
10.422036,1.5643722305815766,0.0985610519658571
10.424424,1.571589237634326,0.0982304583386729
10.426804,1.581879280620131,0.0977784309283995
10.4292,1.60231959696488,0.0969090171577314
10.431588,1.6250415533097664,0.0958962157630395
10.433967999999998,1.6446904737215975,0.0950362597328105
10.436368,1.6662017252529857,0.094165106147676
10.438756,1.6927881134638452,0.0931014365046657
10.441135999999998,1.725520573540816,0.0917367105700793
10.443532,1.7582530336177862,0.0904676168622105
10.445916,1.786050126642145,0.0893531929599882
10.448316,1.814126758920224,0.0881947187419708
10.450712,1.840713147131084,0.0871594686614749
10.4531,1.8679511616480016,0.0861810869009172
10.45548,1.895980572097837,0.085219808085342
10.457876,1.9170725147486445,0.0845032451942243
10.460264,1.93350862960056,0.0839033297973445
10.462644,1.9508759100122537,0.0832879355522788
10.46504,1.9611659529980583,0.0829355579533634
10.467428,1.9723871615436412,0.0825800114593442
10.469812,1.9861695493430824,0.0820525298089092
10.472208,2.0030249730755783,0.081415656330466
10.474592,2.0158761953152404,0.0809142871855414
10.476988,2.0219297193827344,0.080599676622106
10.479387999999998,2.028914409010006,0.0802772579602593
10.481775999999998,2.037621660129975,0.0799454095156913
10.5415,2.030034461882757,0.0796877183184663
10.543895999999998,2.033759124121871,0.079632931588752
10.546283999999998,2.039346117480541,0.0795494204953771
10.548664,2.046935211585628,0.0794169641958298
10.551068,2.0575973416237696,0.0791972377805047
10.553456,2.0633241046093,0.0790954984422844
10.555836,2.0711927379681065,0.0789218284041931
10.558232,2.0738464650205817,0.0789025646173245
10.560619999999998,2.08050439356589,0.0787849394790724
10.563,2.094239559537088,0.0784776624051365
10.565404,2.103970524015452,0.0782774671898012
10.603636,2.140423854615797,0.0781174699950187
10.606016,2.148152718347744,0.0779774603296597
10.608412,2.1537397117064137,0.0779047251447144
10.6108,2.1577439131992477,0.0778193630856332
10.613179999999998,2.1632383587593003,0.0776449112454746
10.615576,2.1657995380131583,0.0775220074502889
10.617964,2.171433753200071,0.0773261530803393
10.620344,2.1762765724540665,0.0771242777553669
10.62274,2.185542902081476,0.0767686713557197
10.625127999999998,2.193878066149107,0.076412890499353
10.627512,2.2017013735375404,0.0760036733872409
10.629908,2.2084537457393347,0.0756347499661975
10.632295999999998,2.2192103194339627,0.0751837532709855
10.634676,2.228756188315092,0.0747940470066945
10.63708,2.2413750931292773,0.0743276722621966
10.68964,2.142679127224252,0.0739781093652681
10.692016,2.140165169798639,0.0739684215995053
10.694424,2.142586579425635,0.0738687918334893
10.696808,2.1451477586794936,0.0737476439953275
10.699187999999998,2.151852909053045,0.0735284038360879
10.701588,2.1571150371876207,0.0732630814338781
10.703971999999998,2.161445999762418,0.0730079920666898
10.706355999999998,2.167918832710493,0.0726864398940908
10.708752,2.1793270327111784,0.072259603479829
10.71114,2.188733131965448,0.0718861125042142
10.746975999999998,2.060054772550283,0.0716260722759848
10.74936,2.0526526699003,0.071565193653084
10.751756,2.0451107976234555,0.0715242741399656
10.754148,2.0386398605332507,0.0714531686984506
10.756528,2.031237757883267,0.0713909726499961
10.758924,2.02025076262103,0.07134344094205
10.761311999999998,2.009123997731934,0.0713211447800789
10.763692,1.999068168029476,0.0712720179796442
10.766092,1.9910144390734343,0.0711820778947539
10.768475999999998,1.9874767682894243,0.0710610625722276
10.770876,1.9908765653044436,0.070797635377825
10.773272,1.998001024558576,0.0704926710687697
10.775656,2.01006085086532,0.0700905819597256
10.77804,2.02547325235884,0.0695643221833363
10.780436,2.0367416827326665,0.0691674941589757
10.782824,2.050943379412688,0.068718393165828
10.785203999999998,2.0612806442267355,0.0683389860547425
10.787604,2.071617909040784,0.0679664565626376
10.789992,2.080884238668193,0.0676269185448604
10.792376,2.083213100496573,0.0674079841035907
10.794772,2.0923396604971223,0.0670867571233286
10.79716,2.095832005310758,0.0669586157985506
10.799544,2.103188781990368,0.0667791582989184
10.80194,2.1085434579235605,0.0666370881418823
10.804328,2.115108838670252,0.0664487441983353
10.806708,2.126330047215834,0.0662220107662542
10.809104,2.1419747661348323,0.0658637951888407
10.811492,2.1628343913601618,0.0653971163046762
10.813871999999998,2.18476495177213,0.0649078135407367
10.816268,2.2060438858780405,0.064399181271833
10.818656,2.2263916544241726,0.0639100163985906
10.821052,2.244877091850748,0.0634430999676607
10.823448,2.261220658904046,0.0630347299193829
10.825836,2.276353521143846,0.0626749580714857
10.82822,2.2886928867043106,0.0623309795930514
10.830616,2.299961317078137,0.0620142922352296
10.833004,2.312021143384881,0.0617101946766769
10.835384,2.32086816413171,0.0614770988132537
10.83778,2.326781918572343,0.0612764161600863
10.840168,2.338562205625367,0.0609959075565499
10.842548,2.341682463386666,0.0608086765423593
10.844948,2.3462929652151834,0.060535038975686
10.876008,2.1882328250519536,0.0603686318827531
10.878392,2.1758953553493585,0.0603354858850927
10.880788,2.1658395256469,0.0602365506414556
10.883172,2.162069537437413,0.0600242318520079
10.885552,2.1644456210940364,0.0597175100643384
10.887956,2.169894740683716,0.0593733311974501
10.890344,2.1853543640054784,0.0589113325651667
10.892724,2.20188492251388,0.0584349559574117
10.89512,2.226284114381089,0.0578869160278843
10.897508,2.2540358814350743,0.0572665737687672
10.899883999999998,2.2802048566232225,0.0566114929899823
10.902292,2.310238263677345,0.0559288585256617
10.904676,2.3365470084923534,0.055263062511245
10.907056,2.365649249986697,0.0545795775357898
10.90946,2.3906075203613475,0.0539732615839691
10.911848,2.420640927415469,0.0533003200214668
10.914228,2.450814104096451,0.0526175214216207
10.916631999999998,2.477774475217518,0.0519946832710993
10.919019999999998,2.5079476518985,0.0513052118811267
10.9214,2.54068200783334,0.0505167992075326
10.923804,2.563126320782375,0.049865070418554
10.926192,2.578633165932381,0.0492906341583684
10.928572,2.59171860145539,0.0487984218328875
11.028923999999998,1.6849975595146531,0.0487407124829836
11.03132,1.666793557199667,0.0486712984191371
