Time,Force,Position
10.867624,1.2947065245964078,0.141870954834961
10.870012,1.2994095742235423,0.1412817344576971
10.872391999999998,1.3035535453432363,0.1408387724754125
10.874788,1.3041126238506775,0.140666504532115
10.877176,1.305602867917896,0.140425647491996
10.879559999999998,1.307744738291173,0.1402152175834027
10.881956,1.3110973134779491,0.1398656689344331
10.884339999999998,1.313658492731807,0.1395366674142715
10.886719999999997,1.3196647949710572,0.1390335332164326
10.889124,1.3267420323969463,0.1384701497034786
10.891512,1.3366127665021703,0.137738740799892
10.893891999999996,1.346763039861115,0.1369495066685765
10.896287999999998,1.3619884498995318,0.1357380221412774
10.898675999999998,1.3750719895646717,0.1347311983712084
10.901055999999995,1.3852222629236155,0.1339228781699055
10.90346,1.3947209099765023,0.1331307465512709
10.905843999999998,1.405150722589167,0.1322925104444658
10.908227999999998,1.412367729641916,0.1317506012396926
10.910624,1.419444967067805,0.1312469116674625
10.913011999999998,1.423588938187499,0.1309386915896604
10.915391999999995,1.4369520171063592,0.1299223490861661
10.917796,1.4511064919581371,0.1289051154981574
10.920184,1.4674028371831926,0.1276577940450577
10.922563999999998,1.4854217439009445,0.1263831646014201
10.924968,1.5025094850589176,0.1251771242546041
10.927352,1.511868362484944,0.1244423971023382
10.929735999999998,1.5209477006572498,0.1238017933950866
10.932132,1.5337517010686688,0.1229802808335729
10.934516,1.5469750103606683,0.1220962559488214
10.936899999999998,1.552189916667001,0.1217191835161065
10.939296,1.554611326293999,0.1214880167542117
10.946459999999998,1.5543790088685216,0.1213640057484271
10.948847999999998,1.559454145547994,0.1210373345763085
10.951244,1.564109973346886,0.1208175177270157
10.953636,1.566251843720163,0.1206636193084743
10.956024,1.5668109222276034,0.1205298623349363
10.958403999999998,1.57058280629496,0.1201735679281764
10.9608,1.5754256255489547,0.119739246674336
10.963188,1.5770556392430342,0.1195390515534972
10.965567999999998,1.576963091444417,0.1193888446785171
10.967972,1.582364989205853,0.1188718604471578
10.970356,1.5825519806609565,0.1186635443192574
10.972739999999998,1.585020612116197,0.1182935852935147
10.97514,1.5944267113704664,0.1175507465758667
10.977528,1.601039313945401,0.1169193465030814
10.979912,1.6037874846543625,0.1164826467378399
10.982308,1.603462619430268,0.116222419625849
10.984696,1.6110063875649807,0.1155614530439907
10.987075999999998,1.6196210908863322,0.1148270723558036
10.989479999999997,1.6274443982747653,0.1140963470357681
10.991867999999997,1.638340741596254,0.1131991754037612
10.994248,1.6470026667458486,0.1122855690517084
10.996644,1.648587354469554,0.1117613748406068
10.999035999999997,1.648589250327423,0.1112516245476824
11.001416,1.649894398797408,0.1107838973046533
11.003812,1.654784439879646,0.1101913873993116
11.0062,1.65539074021533,0.1098871755419084
11.008584,1.6569282061107924,0.1095486247841349
11.01098,1.659396837566033,0.1091757638961588
11.013364,1.66358803051397,0.1087613508970742
11.015748,1.6633557130884928,0.1086489309158155
11.018144,1.66768667566329,0.1082232305599285
11.020532,1.6697359982379498,0.1079591731018838
11.022911999999998,1.67192509043947,0.1076758052729449
11.025308,1.6750453482007686,0.1073549982629397
11.027696,1.6821698074549012,0.1068610943502464
11.030075999999998,1.6900856626419516,0.106358805757435
11.032476,1.6932059204032504,0.1060441071253599
11.034864,1.6972573437243277,0.1057031907469573
11.03726,1.7021001629783223,0.105358619000403
11.039655999999995,1.702659241485763,0.1052464809625965
11.042039999999997,1.7086655437250136,0.1049903132065534
11.04442,1.721888853017013,0.1043883744328043
11.046816,1.7328305223088756,0.1039092676839586
11.049204,1.7440517308544587,0.1033683239426368
11.051583999999998,1.7523396730938463,0.1029517398041928
11.053984,1.7627694857065117,0.1024160540837375
11.056372,1.7709176583190391,0.1020262852980501
11.058751999999998,1.779205600558427,0.1016170881990364
11.061148,1.7845602764916195,0.1013229850642352
11.063536,1.788983786865034,0.10106168956599
11.075495999999998,1.793871932089403,0.1010212765650583
11.077879999999997,1.7946633280223212,0.1010208526217765
11.080264,1.8013212565676298,0.1008107488026039
11.082659999999995,1.803974983620104,0.100757016528173
11.085047999999995,1.8106329121654128,0.1005530830231707
11.087428,1.824787387017191,0.1000083322267607
11.089823999999997,1.8370795307494123,0.0995401323796699
11.092212,1.84522770336194,0.0992452494333934
11.094592,1.8585907822808,0.098739606786989
11.096988,1.874235501199797,0.0981322709403892
11.099376,1.890019989745655,0.0974889281580559
11.10176,1.901940046425539,0.09695280771388
11.104156,1.9180040742251168,0.096260746338967
11.106544,1.934207871651555,0.0955620927376497
11.108939999999995,1.9542761009439664,0.0947493526625388
11.111335999999998,1.970340128743545,0.0940469061364642
11.113723999999998,1.9856127606102048,0.0933349708849794
11.116104,2.0051691332234185,0.0924300971774877
11.118499999999996,2.0253771321426903,0.0915775312610931
11.120883999999997,2.0454453614351022,0.0907767442016172
11.123268,2.064861964421456,0.0899255987960352
11.125663999999995,2.081065761847894,0.0892220228598967
11.128051999999997,2.0934051274083583,0.0886509986260315
11.130436,2.112681960767852,0.0878733528379744
11.132831999999995,2.127023427074733,0.0872611093835363
11.135219999999997,2.133216720769087,0.0869252721436414
11.1376,2.130610215544856,0.0868181826847326
11.139996,2.128934875880403,0.0866916619039592
11.142384,2.127259536215949,0.0865664193834252
11.144768,2.1245132613648576,0.0864809246801866
11.147163999999997,2.124048626513903,0.0862957633978458
11.149552,2.1274484235289224,0.0860193890831133
11.151947999999996,2.125121457558411,0.0858663704911623
11.154343999999998,2.1202333123340424,0.0858575363012026
11.156731999999998,2.1148333104304755,0.0857973871579406
11.159111999999997,2.1167900852065187,0.0854937622360797
11.161511999999998,2.1208887303558384,0.0851158439972874
11.163899999999998,2.1249873755051585,0.0847481850471375
11.166283999999996,2.1264322936020035,0.0844062097292916
11.168688,2.126294419833013,0.0840550761697065
11.171076,2.1300209779299952,0.0836267302522987
11.173455999999998,2.135098010467337,0.0831203066220432
11.175859999999997,2.142316913377956,0.08255354393362
11.178244,2.143529514049323,0.0821341749732041
11.180628,2.142600244347414,0.0817757939069856
11.183024,2.146187032817536,0.0813660322595705
11.185408,2.16150688651244,0.0806928729888507
11.187787999999998,2.1788288409537597,0.0799793915254579
11.190195999999997,2.191867054648525,0.0794075206398412
11.192583999999997,2.20448595946271,0.0789057857545044
11.194964,2.218687656142732,0.0784353641506751
11.19736,2.230747482449476,0.0780315569677237
11.199748,2.246531970995333,0.0775695645725485
11.202127999999998,2.261013206929076,0.0770369151978041
11.249916,2.1661344510617804,0.0768523565003881
11.252295999999998,2.151842102441011,0.0768258774400947
11.254692,2.138760458633741,0.0767471116375611
11.257079999999998,2.1218143829604967,0.0767345029053721
11.259459999999995,2.110455300645923,0.0766522977413224
11.261855999999998,2.100027383891127,0.0765559477059299
11.264243999999998,2.1005411364281943,0.0762346538689513
11.266627999999995,2.1011946585921213,0.075893970310671
11.269028,2.0977042096363547,0.0756571217938605
11.271411999999998,2.092351429561031,0.0754394066554298
11.273791999999997,2.0917942469114594,0.075143824620385
11.276196,2.0930993953814445,0.0748296080712762
11.278584,2.1004108460906803,0.0743919473274959
11.280963999999996,2.1066513616132774,0.0739840191170378
11.283359999999998,2.118618640121404,0.0734874541828835
11.285747999999998,2.130725688256392,0.0729773849186656
11.288127999999997,2.14269296676452,0.0724837262151948
11.290523999999998,2.1594558426983985,0.0719103302805705
11.292911999999998,2.1763584882591376,0.0713354350694376
11.295303999999998,2.189117162700182,0.0708587785047424
11.362203999999998,2.014254508206308,0.0705116573102687
11.364587999999998,2.0110889244746355,0.0704652355641918
11.366984,2.0091340455564617,0.0703680175956693
11.36938,2.011183368131121,0.0701943832700209
11.371768,2.013092921078921,0.0700395450251252
11.374147999999998,2.0159336395864997,0.069873988875958
11.376544,2.0197055236538564,0.0697009957286286
11.378932,2.027341839587186,0.0694716166646941
11.381315999999998,2.034838385893656,0.0692657075397534
11.383712,2.0436854066404844,0.0689913949961152
11.386095999999998,2.0556054633203686,0.0686437457750481
11.388479999999998,2.072321117426005,0.0682255235753127
11.390876,2.087826066718142,0.06786929455224
11.393264,2.105472886383556,0.0674589141632593
11.39566,2.122048770862332,0.0670820004910082
11.398055999999997,2.1339688275422155,0.0667451579741911
11.400443999999997,2.1491016897820154,0.0663253972778604
11.402828,2.166236652768232,0.0658755362042332
11.405223999999995,2.187096277993561,0.0653983812081536
11.503176,2.062510876154108,0.0653825782884056
11.505571999999995,2.0634420417138863,0.0653754727929798
11.507959999999995,2.0655839120871637,0.0653209047512519
11.51034,2.0649322857811057,0.0652865917271256
11.512743999999998,2.066702069102045,0.0651528482579927
11.515131999999998,2.0724760539158185,0.0649466348304557
11.517512,2.0786693476101727,0.0646809290467735
11.519907999999996,2.085933576491165,0.0643894562085
11.522295999999995,2.0961310716783528,0.0640620216351126
11.524679999999996,2.102464134999567,0.0637837988464996
11.527075999999996,2.1069348672012245,0.0635192917617529
11.529459999999997,2.1131281608955783,0.063262196883778
11.531844,2.112244217164043,0.0631318039733905
11.534247999999998,2.1116398126862284,0.0629601163951464
11.536635999999998,2.111687034514472,0.0628207840474892
11.539015999999997,2.110663321156076,0.0627092172921948
11.541415999999998,2.112572874103876,0.06255891026263
11.543803999999998,2.1175554629847317,0.0623493881667489
11.546183999999997,2.123469217425365,0.0621415117993411
11.548579999999998,2.129243202239138,0.0619508215899483
11.550971999999998,2.134365560746853,0.0617286377493287
11.553351999999997,2.140558854441207,0.0614825942525667
11.555747999999998,2.144470508135424,0.0613078729582492
11.558135999999998,2.149313327389419,0.0611216599266119
11.560519999999997,2.157229182576469,0.0608838960314049
11.562915999999998,2.1622117714573243,0.0606845133687356
11.565303999999998,2.1641213244051243,0.0605408778385739
11.567684,2.1629578414198685,0.0604523643718247
11.570083999999998,2.1549966602624444,0.0604412256253521
11.572471999999998,2.149968745411215,0.060393388625729
11.574852,2.146942931306403,0.0603145957490265
11.577251999999998,2.1451278220150893,0.0601918846248657
11.579635999999995,2.152392050896082,0.0599237659530713
11.58202,2.1605874453368523,0.05965367939898
11.584415999999996,2.1727870412704573,0.0593275410032566
11.586803999999995,2.189130608323756,0.0589284792474547
11.589184,2.1994678731378032,0.0586206209178217
11.591583999999996,2.2047300012723787,0.0583923827167745
11.593971999999996,2.2058481582872607,0.0582408548250759
11.596352,2.209247955302279,0.0580243496424731
11.598747999999995,2.213299378623356,0.0578432226907427
11.601135999999997,2.2161400971309337,0.0577043253644052
11.603531999999998,2.222193621198428,0.0574988870527627
11.605928,2.2362555482515893,0.0571958202564166
11.608316,2.2480358353046133,0.0569628265424424
11.610695999999995,2.2607472879174155,0.0567253653809973
11.613096,2.27839410758283,0.0564391621985104
11.615479999999998,2.2972516320617427,0.0561089585782317
11.617859999999997,2.323046624339684,0.055699760990105
11.620264,2.346839515871209,0.0553180613942039
11.622652,2.3676991410965385,0.0549648970455192
11.625031999999996,2.384414795202175,0.0546810392211505
11.627427999999998,2.39512414706856,0.0544730243421117
11.62982,2.40304000225561,0.05427418484088
11.632199999999996,2.408022591136466,0.0541042031413037
11.634595999999998,2.4100719137111257,0.0539621136152481
11.636983999999998,2.4142631066590625,0.0537789765265089
11.639363999999995,2.423529436286472,0.0535309124643601
11.641768,2.433215074794462,0.05322805043058
11.644156,2.4387567421827576,0.0529863402332338
11.646539999999998,2.4435070136381354,0.0527305147505369
11.648936,2.4485368243472343,0.0524390237465084
11.651324,2.4503538294964167,0.0522085858383096
11.653703999999998,2.444302201286792,0.0520485140294488
11.6561,2.435596846024693,0.0518749780844452
11.658487999999998,2.4299645266956493,0.0516634681981383
11.660867999999995,2.4183259051273547,0.0515115488747331
