Time,Force,Position
21.918475999999995,1.8564300094199984,0.1468813842936581
21.920864,1.863507246845888,0.1464438756739199
21.923244,1.871003793152357,0.1459110708575197
21.925643999999995,1.8772896346453285,0.1454769960173904
21.928032,1.888650612817772,0.1446900481675243
21.930412,1.9012222958037133,0.143826719630226
21.932811999999995,1.9110004821103204,0.1431142274616086
21.9352,1.9252947265889588,0.1422177296603791
21.93758,1.942102928493212,0.1412289377133541
21.939976,1.951414584090995,0.1407640096077652
21.942364,1.9650099804353325,0.1400348183066358
21.944748,1.9736700097270576,0.1395982065035771
21.947152,1.980188168645506,0.1392986731581225
21.949539999999995,1.9871256364445349,0.1389191296298728
21.95192,1.9968566009228987,0.1384275109484268
21.954315999999995,2.011522932453875,0.1376810672492178
21.956704,2.022324832118877,0.1371279905642864
21.959088,2.0371309332767136,0.1363704432544175
21.961483999999995,2.053147739248048,0.1355268689085957
21.963872,2.0691645452193828,0.1347154350831476
21.966252,2.085600660071298,0.1338623457366742
21.968651999999995,2.1011056093634357,0.1330523164419052
21.97104,2.1214061560813247,0.1320659954645509
21.97342,2.147201148359266,0.1307899845373721
21.975819999999995,2.173927306196986,0.1295148931937814
21.978208,2.196090184034432,0.1285162432515004
21.980588,2.219044457804795,0.127496796536477
21.982984,2.238274069336045,0.1266382617572217
21.985371999999995,2.2565725153075173,0.1258134576356738
22.040328,2.277568118443969,0.1251104194522274
22.042715999999995,2.2762648658318527,0.1250807318367254
22.045099999999994,2.278314188406513,0.1248851407455565
22.047496,2.2825053813544507,0.124588602842648
22.049883999999995,2.289769610235443,0.1241681191192726
22.052267999999994,2.2965219824372376,0.1237201080048639
22.054668,2.305276455385449,0.1231981285342719
22.057056,2.311889057960384,0.1227670552785769
22.05944,2.3167790990426216,0.122366003046209
22.061836,2.3295377734836675,0.1216775482044588
22.064228,2.343227613484491,0.1209566333444477
22.066612,2.3597109501646494,0.1201415217614435
22.123972,2.348725850760282,0.119589267013932
22.126368,2.350727951506699,0.1195162097011403
22.128756,2.3545923833726725,0.1193863043926366
22.13114,2.3585965848655066,0.1192304980863231
22.135928,2.360086828932725,0.1191147897782166
22.138312,2.3607856770670264,0.1190046223915304
22.140708,2.360181272589212,0.1188647028411527
22.143096,2.3558522058722837,0.1188397914321834
22.14548,2.358320837327524,0.1185692220959626
22.14788,2.356925036916792,0.1184356481447884
22.150272,2.360464603558671,0.1181165441830378
22.152652,2.361350443148075,0.1178623008352316
22.159824,2.3451976592656187,0.1178100034349398
22.162219999999994,2.340216966242633,0.1177677337260548
22.164611999999995,2.33896093545876,0.1176110840641392
22.169395999999995,2.327928614226149,0.1175650642732989
22.171784,2.324717704524103,0.1173627276939183
22.174168,2.3149886359036085,0.1173463146067678
22.176564,2.3086121424698898,0.1171634215499467
22.178952,2.306100080902145,0.1168543257577033
22.181336,2.307172911946652,0.1164621135516188
22.183732,2.30866505187174,0.1160028808621257
22.18612,2.311228126983468,0.1154952011313931
22.188504,2.311230022841337,0.1151415369359627
22.1909,2.3121630842589846,0.1147564885414565
22.193288,2.309091944183799,0.1145262060652599
22.195672,2.30802290485503,0.1142183941625548
22.198068,2.3013668721675904,0.1140724013976636
22.200456,2.2925689691068736,0.1140275973944296
22.20284,2.2867043323523526,0.1138765040278708
22.205236,2.2820504004113307,0.1136516464321505
22.207624,2.281260900336281,0.1132895670705984
22.210008,2.279400465074594,0.1129798078761778
22.212408,2.277540029812906,0.112674238877503
22.214796,2.277821464924496,0.1122753573964179
22.217176,2.2799652311556424,0.1118253336621943
22.219572,2.279827357386651,0.1114954468513323
22.221964,2.2863474121629688,0.1109694581389728
22.224352,2.2896546613793705,0.1105856564841594
22.226752,2.292030745035994,0.1102320105105634
22.22914,2.2928240368267816,0.1098872983499959
22.231528,2.2942689549236266,0.109559929036177
22.233924,2.298507369699806,0.1091716214845172
22.236311999999995,2.3078209211554594,0.1086072987624073
22.2387,2.319927969290447,0.107981497400349
22.2411,2.332966182985212,0.1073296620195042
22.243488,2.342000195187145,0.106796632987948
22.245876,2.350754668135356,0.1062878383988617
22.248276,2.366586378509457,0.1055317791930231
22.250664,2.379205283323642,0.1049061790623106
22.253052,2.393546749630524,0.1042551057366597
22.255448,2.405886115190988,0.1036822797373171
22.257836,2.4190168766843705,0.1031120209250081
22.260224,2.42814343668492,0.1026767426219023
22.262619999999995,2.433917421498693,0.1023975282930699
22.265008,2.440622571872245,0.1021024954993233
22.267395999999994,2.448119118178714,0.1018084866499178
22.269792,2.4546844989254057,0.1015470069935529
22.272179999999995,2.462320814858736,0.1012441599965641
22.274576,2.467163634112731,0.1010030220025551
22.27698,2.470655978926367,0.1008415158310347
22.286552,2.4614387669850704,0.1008010759390743
22.288948,2.459344118440036,0.1007621321846244
22.291344,2.465118103253809,0.1005162118340707
22.293731999999995,2.477969325493472,0.1000672497594997
22.296136,2.4878872814269397,0.099707793728887
22.29854,2.5022287477338203,0.0991869976987915
22.300927999999995,2.515778818107784,0.0986692794779982
22.303324,2.529608427735468,0.0981173332529306
22.305723999999994,2.5395736054971785,0.0976466402057528
22.308112,2.549678552885749,0.0971464581062625
22.310516,2.5588523347145413,0.0966549942860261
22.312908,2.5652326198639983,0.0962226530031245
22.315304,2.5686796387072603,0.09586174767413
22.317704,2.5687740823637464,0.0956328653611198
22.320092,2.5705910875129296,0.0953888647392722
22.322488,2.576132754901226,0.0950744945021681
22.324884,2.585678623782356,0.0946558487041616
22.327272,2.599088924529459,0.0941572542530293
22.329667999999995,2.615572261209617,0.0935667852269867
22.332064,2.632986763449554,0.0929653743895707
22.334456,2.6486787041967945,0.0923812632309215
22.336852,2.657945033824204,0.0920090205796132
22.339248,2.6665597371455547,0.0916349563887773
22.341636,2.669959534160573,0.0914130529604263
22.34402,2.670006755988817,0.0913056784542862
22.346415999999994,2.6685637337498407,0.0912832918157039
22.351184,2.668843273003561,0.0912490638114297
22.35358,2.67592051042945,0.0910824743337655
22.355968,2.6868621797213126,0.0908431129988615
22.358352,2.7019478201328697,0.0904972473021834
22.360748,2.7187560220371223,0.0901413514609278
22.36314,2.740639360620848,0.0896678663568139
22.36552,2.765875274391349,0.0890871551085585
22.420484,2.7613611120771866,0.088768861194019
22.42286,2.754098779054064,0.0887505760469101
22.42526,2.749118086031078,0.0886586045420689
22.427644,2.748001824874065,0.0885011306379245
22.430028,2.742229735918161,0.0884054929547537
22.432424,2.741393014014869,0.0882156723259193
22.434812,2.747121672858268,0.0878352758947114
22.437192,2.754992202074945,0.0874019481087133
22.439596,2.764585292784317,0.0869661356856259
22.44198,2.770174182000857,0.0866083940663008
22.444364,2.7751114449113383,0.0862269890200537
22.44676,2.78591524043421,0.0857403084751401
22.449148,2.7967190359570813,0.0852494660186539
22.451532,2.808733536293452,0.0847176708128368
22.453928,2.818745935883405,0.0842272946657859
22.456316,2.8298292706599963,0.0837116137062542
22.458696,2.8455684332354805,0.083128190388289
22.461096,2.8641010924902988,0.0824990729482297
22.463484,2.8843563132378147,0.0818778161331437
22.465864,2.895671965439884,0.0814336756379299
22.468263999999994,2.9079187832017315,0.0809776579209827
22.470652,2.914019529097468,0.0806583246665444
22.473032,2.918909570179706,0.0803845112405142
22.475428,2.9242189201425246,0.0800688874790921
22.477816,2.933392701971317,0.0796921668359757
22.4802,2.9416353182403308,0.0793360555228555
22.482596,2.947596294509207,0.0790505958652307
22.484984,2.9504842348450286,0.0788269566284639
22.487368,2.952441009621072,0.0786156444854636
22.489764,2.9571912810764496,0.0783732256696063
22.492156,2.966457610703859,0.0781007019320361
22.494536,2.97507231402521,0.0778153731830141
22.496932,2.983687017346562,0.0775277606653333
22.49932,2.993372655854552,0.0772228767425391
22.501704,3.0030582943625417,0.0769155556764273
22.5041,3.0088795010045577,0.0766566552215681
22.506488,3.015911412460073,0.0763633838945457
22.508868,3.0240142591022265,0.0760485153631798
22.511268,3.0245280116392936,0.0758146051674573
22.513656,3.030116900855833,0.0754908905182062
22.516052,3.038499286751708,0.0751463203479895
22.518448,3.0498149389537774,0.0747579784153751
22.520836,3.062201526342485,0.0743486193293614
22.52322,3.070444142611499,0.0740190724471402
22.525616,3.078966298134233,0.0736649411964096
22.528004,3.082692856231216,0.0733650409238832
22.530383999999994,3.08669895358192,0.0730366087327338
22.532784,3.090705050932621,0.0727059503222465
22.535172,3.091777881977129,0.0724126636179017
22.537556,3.091779777834999,0.0721409196348733
22.539952,3.087125845893976,0.0719089391750935
22.54234,3.081261209139455,0.0717146578123431
22.544724,3.078469608317989,0.0714698337428112
22.547124,3.072465201936608,0.0712898583086051
22.549512,3.068462896301644,0.0710813079052022
22.551896,3.0663229217862358,0.0708561711647237
22.554292,3.060318515404854,0.0706737482044231
22.556684,3.0515206123441376,0.0705115040914384
22.559064,3.048449472268952,0.0702902776808413
22.561464,3.0433762314473487,0.0700975160104148
22.563852,3.0345783283866328,0.0699325981825318
22.566236,3.024709490139278,0.069788367913863
22.568632,3.0129783207723664,0.0696567185762141
22.57102,3.0055308921520094,0.069439170127718
22.573404,2.9985953202108497,0.0692590000671984
22.575803999999994,2.9951048712550827,0.0690814413691446
22.578192,2.9902639478589568,0.068952885244521
22.580572,2.989427225955665,0.0687713477427808
22.582968,2.989661439239012,0.0685675808528423
22.585356,2.991246126962717,0.0683137013999946
22.587736,2.994553376179119,0.0680603702557199
22.590132,2.9959982942759646,0.0678199435431583
22.59252,2.9923680756933377,0.0676532865051927
22.5949,2.9887378571107104,0.0674857395919347
22.5973,2.985247408154944,0.0673042901854203
22.599688,2.983619290318733,0.067110840857687
22.602068,2.986507230654554,0.0669027675327285
22.604464,2.994050998789267,0.0666667552495781
22.606852,3.00145499729712,0.0664472043943675
22.609231999999995,3.010581557297669,0.066231017139368
22.611628,3.01877695173844,0.066019068442138
22.614016,3.028974446925627,0.0657819560657003
22.616396,3.0402428772994536,0.065525779524168
22.6188,3.0489501284194223,0.065355388204463
22.621188,3.052861782113639,0.0652250474389768
22.623567999999995,3.055190643942019,0.0650768891586312
22.625968,3.059661376143676,0.0648894148865733
22.628356,3.06026767647936,0.0647389507043601
22.63074,3.0645986390541573,0.0645695381583486
22.633136,3.0697209975618733,0.0644106154156151
22.635524,3.076985226442865,0.0642162619482787
22.637903999999995,3.0801054842041644,0.064079367940698
22.640304,3.086438547525378,0.0638835831867071
22.642692,3.08783624379398,0.0637376110046527
22.645076,3.086021134502668,0.0636509880466289
22.647472,3.082623233345517,0.0635453890962413
22.64986,3.076571605135893,0.0634410915858802
22.652244,3.066655545060295,0.063370973598417
22.65464,3.057019024238417,0.0632716345209112
22.657032,3.046591107483622,0.0631625464912188
22.659416,3.037606212967802,0.0630868247730126
22.661812,3.0267589873324248,0.0630197098866087
22.6642,3.017494553562885,0.0629709031008776
22.66658,3.0063677886737885,0.0629323014152061
22.66898,2.9981742900908874,0.0628654842396204
22.671368,2.994776388933737,0.0627606028418297
22.673752,2.9903075525899494,0.0626745667809444
22.676148,2.985698946619301,0.0626021984555128
22.678536,2.9781570743424566,0.0625574364895956
22.683315999999994,2.9544133004970443,0.0625326219426527
22.685704,2.9479423634068387,0.0624682341291245
22.688084,2.9439853837422483,0.0624191015722854
22.690483999999994,2.953763570048856,0.0622428589268665
