Time,Force,Position
26.622404,3.232995677309717,0.158295180247952
26.624792,3.2637656750370367,0.1578810963085943
26.627172,3.288763583808453,0.1575394738649854
26.629567999999995,3.308221721049442,0.1573040945271204
26.631956,3.328286158626115,0.156907468938396
26.634336,3.3394582494855864,0.1567788627736032
26.636732,3.3508173318001604,0.156548685859386
26.639119999999995,3.363154801502756,0.1561986227173238
26.641504,3.373257853033457,0.1558778444422463
26.6439,3.380986716765404,0.1555973473172958
26.655836,3.3780081244888347,0.1555450464013252
26.658232,3.376193015197521,0.1555179287741972
26.660623999999995,3.374517675533068,0.1554742496694554
26.663004,3.3728423358686146,0.155430396803866
26.665404,3.3759625936299136,0.1552264194586935
26.667791999999995,3.382807513630325,0.1549101998313001
26.670172,3.389233124750156,0.1546453993053157
26.672572,3.394448031056488,0.1544371783749505
26.674959999999995,3.397521066989544,0.1543187574917139
26.67734,3.402456434042156,0.1541423976417002
26.679736,3.4067401747887103,0.1539653567843741
26.682124,3.415167886654958,0.1536223550481367
26.684508,3.4245267640809844,0.1532617075907683
26.686903999999995,3.4336061022532904,0.1529360558849727
26.689292,3.4434768363585144,0.1526009876906426
26.691672,3.457351771956572,0.152129878585787
26.694068,3.472018103487548,0.1516441185278179
26.696456,3.486684435018524,0.1511534804576724
26.698836,3.5070775295350294,0.1504824871856532
26.701236,3.5254685233051184,0.1498836305594076
26.777695999999995,3.584352895849415,0.1495373162375156
26.780092,3.589428032528887,0.1493683720395393
26.782476,3.6002299321938893,0.1490356090064072
26.78486,3.611031831858892,0.1487028459732751
26.787256,3.624906767456949,0.1482650031787735
26.789639999999995,3.637850537495229,0.1478554070503436
26.79202,3.652284551600728,0.147374163413581
26.79442,3.666858335333087,0.1468834163316492
26.796804,3.686926564625498,0.1461974762259341
26.799188,3.70713456354477,0.1454982181293401
26.801592,3.7326972383972334,0.1446246766277135
26.803975999999995,3.7611931795558937,0.1436757038018088
26.80636,3.7836828184753033,0.1429074154497473
26.80876,3.815112025940158,0.1419013324464582
26.811148,3.849893808591789,0.1407674176375403
26.813532,3.88467559124342,0.1396368299615225
26.815928,3.9155929420290767,0.1386144455008329
26.818316,3.946650062441594,0.1375796170964514
26.820696,3.973842750988138,0.136641050579742
26.823096,3.999173108415126,0.1357397302215592
26.825484,4.018916472483443,0.1349883983080581
26.827864,4.034935174312647,0.1343237970163914
26.83026,4.047089444275878,0.1337640622552736
26.873276,3.9291356035900513,0.1334887969079714
26.875664,3.924294680193925,0.1334669293216241
26.878044,3.923597727917493,0.1333289872380187
26.880444,3.919827739708006,0.1332740862501196
26.882832,3.917920082618076,0.1331807863226956
26.885216,3.919504770341781,0.1329663219577705
26.887612,3.928026925864516,0.1325797681275816
26.89,3.939761886947165,0.132099426239751
26.89238,3.9482840424699,0.1317102661697858
26.894776,3.9563868891120535,0.1313599457865921
26.897168,3.966352066873764,0.1309684652602707
26.899548,3.977527949448973,0.1305265317762591
26.901944,3.992708033517016,0.1299846910677918
26.904332,4.007608578331338,0.1294574231988789
26.906716,4.019575856839466,0.1290069408410482
26.909112,4.032334531280511,0.1285569046645353
26.9115,4.044162040161778,0.1281361653225883
26.913884,4.054127217923488,0.127751154830421
26.91628,4.061298899005863,0.1274244692988584
26.918668,4.067539414528461,0.1271180679293674
26.921052,4.079786232290309,0.1266665367573078
26.923456,4.091893280425297,0.1262325089176758
26.92584,4.0978542566941725,0.125957830591507
26.928224,4.105957103336327,0.1256204394921328
26.930627999999995,4.117272755538396,0.1251966261978446
26.933012,4.122302566247494,0.1249425725314862
26.935392,4.123467945090618,0.1247723217583612
26.937788,4.118766791321353,0.1247304817481142
26.940176,4.117278443112003,0.124598286309474
26.942556,4.118630813410231,0.1243438980573049
26.944952,4.123195989268376,0.1240033961221111
26.94734,4.130694431432715,0.1236016364741159
26.949724,4.134188672104219,0.1232941484314791
27.01424,3.995005014998596,0.1231528111889392
27.016636,3.99370176238648,0.1231364741646075
27.019027999999995,3.994819919401361,0.1230331554226143
27.021408,3.994867141229604,0.1229609701209277
27.023803999999995,3.998127168617762,0.1228003132366046
27.026192,3.9975227641399473,0.1227200188021181
27.028576,3.995335567796297,0.1226485705947222
27.035744,3.9840709291382095,0.1225883851620222
27.038139999999995,3.982535359100616,0.1225252980896306
27.040528,3.985935156115636,0.1223531353377849
27.042912,3.991197284250211,0.1221474398216177
27.045307999999995,3.996599182011647,0.1219279229834339
27.047696,4.004934346079278,0.1216471057557854
27.050076,4.021557452386297,0.1211577895630467
27.052472,4.038040789066455,0.1206852961646668
27.05486,4.056014369813834,0.1201509475858085
27.057244,4.069843979441517,0.1197168508452524
27.05964,4.081019862016726,0.1193185981399356
27.062028,4.096339715711628,0.1188209911139596
27.064412,4.111939108660252,0.118306883990521
27.066808,4.126188027168517,0.1178490196668476
27.069196,4.136572513810808,0.1174642925035744
27.071576,4.145234438960403,0.1171053646178013
27.073976,4.156689860789332,0.1166962510092679
27.076364,4.16893667855118,0.1162866525816243
27.078748,4.181323265939888,0.1158653753252255
27.081144,4.193989392582315,0.1154167836004787
27.083532,4.20279108735877,0.1150406251494476
27.085912,4.210521846948587,0.1146938128156005
27.088308,4.21452794429929,0.114409473218704
27.090696,4.22053614239641,0.1140861228183678
27.09308,4.229337837172864,0.1137192279383743
27.095476,4.235206265643124,0.1134111327698884
27.097864,4.239863989299885,0.1131483805812462
27.100244,4.2429389210908095,0.1128909277279881
27.102644,4.247456875120711,0.1126440740005602
27.105032,4.257049965830084,0.112293057127593
27.107412,4.270367718778569,0.111887734772516
27.109812,4.2798210398610825,0.1115521600301612
27.112196,4.285270159450762,0.111294116241741
27.11458,4.288717178294024,0.1110731184944391
27.116976,4.297099564189897,0.110760728342929
27.119364,4.299847734898858,0.11059569927535
27.121748,4.305668941540874,0.1103684793968416
27.124144,4.310419212996252,0.1101671441645929
27.126528,4.31516948445163,0.1099661918789766
27.128928,4.323784187772981,0.1097026253134808
27.131324,4.3361235533334455,0.1093839228692133
27.133712,4.347531753334133,0.1090775831945666
27.191056,4.268443173586304,0.108772576002835
27.193435999999995,4.265696898735212,0.1087443386645109
27.195836,4.26323016313784,0.1086931413769244
27.198224,4.261042966794189,0.1086186055299664
27.200603999999995,4.262208345637314,0.1084584571115883
27.203004,4.259229753360744,0.1083853649260643
27.205392,4.260674671457589,0.1082035826655766
27.207776,4.26640333030099,0.1079250274838326
27.210172,4.274273859517665,0.1076010781835646
27.21256,4.280421827241645,0.1072890010343601
27.214944,4.279073248659156,0.1071461366257641
27.217344,4.27600210858397,0.1070166244813714
27.219732,4.277074939628478,0.1068025831137061
27.222116,4.281500345859762,0.1065064649939275
27.224512,4.288067622464322,0.1061632729270505
27.2269,4.2958456038823805,0.1057873174201848
27.229284,4.302971958994384,0.1054006481435817
27.23168,4.311820875599081,0.1049988830371521
27.234072,4.321740727390417,0.1045758155387404
27.236456,4.329938017689057,0.1041691122433164
27.238852,4.34321044466717,0.1036705230916862
27.241244,4.350336799779171,0.1032863321141385
27.243624,4.358534090077811,0.1028809961167986
27.24602,4.369664646682645,0.1024287582795244
27.248408,4.37464913142137,0.1020912609491966
27.250788,4.378422911346596,0.101783889659561
27.253188,4.37577108015199,0.1016179730957676
27.255572,4.371117148210968,0.1014875946543029
27.257956,4.364461115523529,0.1013916050605318
27.260356,4.362088823582644,0.1012043019547236
27.262744,4.363069106828535,0.1009359665128414
27.265124,4.369915922686815,0.1005780255825165
27.267524,4.37354993298518,0.1002893184096974
27.269912,4.37518184253713,0.1000362057181834
27.272296,4.374671881715802,0.0998274590556118
27.274704,4.372951216080974,0.0996521501100512
27.277088,4.376026147871898,0.099413858683339
27.279471999999995,4.3824536548496,0.0991037101631094
27.281868,4.387949996267522,0.0988056334125552
27.28426,4.392235632871945,0.0985388993619618
27.286639999999995,4.3906547368639774,0.0983550897003258
27.28904,4.392426416042786,0.0980950839002646
27.291428,4.39112505928854,0.0978875841316273
27.293807999999995,4.387542062534156,0.097733287744913
27.296208,4.3908965335788,0.0974734515013642
27.298596,4.400536846116417,0.0970972966007511
27.300975999999995,4.416463000147004,0.0966049076699516
27.303376,4.431038679737232,0.0961546572310793
27.305764,4.444124115260241,0.0957570875342171
27.308148,4.453717205969613,0.0954471159415782
27.310544,4.461168426305709,0.0951784570125823
27.312932,4.461542409215916,0.0950259498167097
27.353552,4.389804918574089,0.0949212922618751
27.35594,4.3853360822303005,0.0948934768540488
27.358324,4.385662843312264,0.0948079241775061
27.360724,4.389993805887061,0.094662823573552
27.363112,4.391391502155663,0.0945566216851678
27.365492,4.395350377678123,0.094377224459674
27.367892,4.400240418760362,0.094189064443467
27.37028,4.407923956521934,0.0939729233653981
27.37266,4.420822400589839,0.0936666314396606
27.375056,4.437725046150579,0.0933031908568509
27.377448,4.45397606540526,0.0929291386557212
27.379828,4.470646393540522,0.0925249277517278
27.382224,4.486385556116005,0.0921354373078546
27.384612,4.504266589064767,0.0917103279649213
27.386996,4.515210154214499,0.091379543271855
27.389392,4.525082784177592,0.0910721614700855
27.391784,4.540961716379935,0.0906798377432099
27.394164,4.554978317462722,0.0903088729052453
27.396564,4.571276558545648,0.0898890438139272
27.398952,4.586783403695654,0.0894733602664033
27.401336,4.606434219965354,0.0889989596917418
27.403732,4.625945266608194,0.0885352471617721
27.40612,4.641731651011921,0.0881076283858232
27.4085,4.654584769109453,0.0877136810632206
27.410896,4.67172162795354,0.0872491479493886
27.413284,4.69193152273068,0.0867480037629317
27.415664,4.708276985641848,0.0862861066983675
27.418064,4.7221084911274005,0.0858297431532398
27.420452,4.7316562558664,0.0854446506362826
27.422832,4.7358965665004495,0.0850864750670091
27.425228,4.738414315641802,0.0847325146013632
27.42762,4.740512755902574,0.084408712838581
27.43,4.738467225043652,0.0841435315679118
27.432396,4.734279823811454,0.0839139691963027
27.434784,4.735819185564784,0.0836290237783697
27.437168,4.733214576198422,0.0834027876787004
27.439564,4.732751837205337,0.0831451598553728
27.441948,4.731078393398753,0.0829139091678613
27.444332,4.730056575898226,0.0826956780868382
27.446728,4.721817751344951,0.0825747854663381
27.44912,4.705430754179148,0.0825599320471319
27.4515,4.689463065893926,0.0825144348840968
27.4539,4.675777017608841,0.0824238331524895
27.456288,4.665303774883672,0.0822821303680778
27.458668,4.650407021785088,0.082216507266926
27.461064,4.63150606719367,0.0821952682146329
27.463456,4.619822119655002,0.0820774400256427
27.465836,4.608138172116334,0.0819586424694319
27.468236,4.599806799764441,0.0817809570540368
27.470624,4.591056118531968,0.0816309561679718
27.473004,4.582165667672635,0.081489716620028
27.4754,4.571692424947465,0.0813412993077043
27.477792,4.567505023715267,0.0811032669486696
27.480172,4.563736931363648,0.080835500711039
27.482568,4.557315111959555,0.0805776466205498
27.484956,4.555177033302017,0.0802535286015794
27.48734,4.548103587591867,0.0799822919182217
27.489736,4.53944735001588,0.0797019338504128
27.492128,4.529068550947197,0.0794238473311714
27.494508,4.526977694117901,0.0790341150967053
27.496908,4.532895240274273,0.0785527696434413
27.499292,4.539743951990424,0.0780679847314218
27.501676,4.54216915333316,0.0776560810241046
27.504076,4.542592253929478,0.0772669873166291
27.506464,4.545296994525935,0.0768345527397336
27.508844,4.545440555868534,0.0764606296834839
27.51124,4.542371311651216,0.0761385859578643
27.513632,4.541955794486373,0.0758097342377121
27.516012,4.539258637321395,0.0755220184044461
27.518408,4.542428012768806,0.0751806884984056
27.5208,4.54946182008219,0.0748075677526927
27.52318,4.561291224821327,0.074399272949947
27.52558,4.567254096948073,0.0740449526120928
27.527968,4.574148134634597,0.0736875791164364
27.530352,4.582904503440679,0.0733209115798882
27.532748,4.589519001873481,0.0729847357531806
27.535136,4.595202334746507,0.072652300701385
27.53752,4.605681265045285,0.0722858048142061
27.539916,4.616811821650121,0.0719334473081948
27.542304,4.631667040494069,0.0715717126480454
27.544688,4.641586892285406,0.0712539137292145
27.547084,4.650435808890103,0.0709520347513821
27.549472,4.665430797360912,0.070587109034374
27.551856,4.68028601620486,0.0702310355031366
27.554252,4.697283105422086,0.0698520143637971
27.556643999999995,4.718052078706668,0.0693924988899481
27.559024,4.733745915311777,0.0689799144727622
27.561424,4.744923693744855,0.0685794440838687
27.563808,4.756381011431653,0.0681590227211953
27.566192,4.765044832439117,0.0677550761088102
27.568587999999995,4.771846322327024,0.0673619616573013
27.570976,4.771430805162182,0.0670422577254685
27.57336,4.774739950236453,0.066706085761216
27.57576,4.776046994564307,0.0663875957314176
27.578147999999995,4.777354038892162,0.0660708614156542
27.580528,4.781734119153073,0.0657261092226404
27.582928,4.788907696093317,0.0653707608346377
27.585312,4.792868467473647,0.0650547022337049
27.587696,4.796317382174777,0.0647145256498314
27.590091999999995,4.789895562770686,0.0644457555595704
27.592483999999995,4.788548880046064,0.0641341892886744
27.594864,4.785200096575028,0.0638370065770597
27.597259999999995,4.776915946051378,0.0635738684441033
27.599648,4.770633896274146,0.0632954658371997
27.602032,4.75913694019058,0.0630671462981985
27.604432,4.749362545599713,0.0628418520433894
27.606819999999995,4.745873992501814,0.0625541064820126
27.6092,4.747041267202808,0.0622522781141966
27.611595999999995,4.7492794770904405,0.0619388269410817
27.613984,4.752868161418433,0.0615977800979979
27.616368,4.757388011306202,0.0612556275380255
27.618763999999995,4.768473241940663,0.0608361080311975
27.621152,4.776485436642069,0.0604413161129011
27.623536,4.786359962463031,0.060042920599807
27.625931999999995,4.793301221977798,0.0596602886901248
27.628324,4.79716944555951,0.0593035672600424
27.630704,4.798895798767946,0.0589690793807926
27.633104,4.80183285678988,0.0586144685315806
27.635492,4.804350605931233,0.0582854018628205
27.637875999999995,4.809010225445863,0.0579306468243925
27.640276,4.8104570394005775,0.0576114448507746
27.642664,4.813766184474847,0.0572873066733463
27.645048,4.819217199922396,0.0569409166650146
27.647444,4.822666114623528,0.0566077147288718
27.649836,4.830119230817494,0.05624836738128
27.652216,4.834499311078403,0.0559137195971796
27.654616,4.835666585779397,0.0556120263262299
