Time,Force,Position
26.892143999999995,6.773872248744928,0.1427250069740388
26.894532,6.852549103043655,0.1419779780618971
26.896912,6.911441059019429,0.1413920206815715
26.899316,6.955064174844283,0.1408921447922274
26.901703999999995,6.982719602383913,0.1405093125033838
26.904084,7.00558132835566,0.1400836615750781
26.906479999999995,7.022950504625225,0.1396564966216875
26.908868,7.032545491192465,0.1392768520120491
26.911248,7.0323169654827264,0.1390146300070573
26.913644,7.027991690481536,0.1387836044238945
26.916032,7.020872918801011,0.1385896383380828
26.918428,7.005605974507958,0.1385328095471501
26.920832,6.989128325401406,0.1385034267055541
26.92322,6.97451300741441,0.1384487795772855
26.9256,6.961108394240915,0.1383658373454349
26.927996,6.945189823641803,0.1383038737080387
26.930384,6.9278282308037165,0.1382423032750905
26.932768,6.910326868338768,0.138187194584166
26.935164,6.8937566714336,0.1381190998674537
26.937548,6.87704670490157,0.1380578633089715
26.939932,6.862990465422016,0.1379676311610537
26.942328,6.847583751502103,0.1379108585374354
26.944716,6.833899599074888,0.137838488861654
26.947095999999995,6.821798238513507,0.1377575146481059
26.949492,6.81435270575102,0.1376158323833389
26.95188,6.804905072242113,0.1375059288987014
26.95426,6.791732776494096,0.1374443074975028
26.956655999999995,6.775347675186163,0.1374428854398359
26.959048,6.765388184998061,0.1373206032935796
26.961428,6.756639399623457,0.1371701071210411
26.963823999999995,6.751894815741687,0.1369560243506391
26.966212,6.758091901151779,0.1365715717785328
26.968596,6.764428756188732,0.1361785103875895
26.970991999999995,6.767552805665769,0.1358434904801509
26.973375999999995,6.771328481448864,0.1355130509798497
26.97576,6.775755783538016,0.1351851544376698
26.978156,6.778692841559951,0.1348995579269656
26.980543999999995,6.780279425141526,0.1346493624830043
26.982928,6.78158646946938,0.1344151197259039
26.985324,6.782893513797235,0.134181130759497
26.987711999999995,6.782338227005532,0.1339711109874417
26.990092,6.779780839467413,0.1337926362141839
27.049856,6.571849659143744,0.1335744841444286
27.05224,6.569150606120896,0.1335227544113652
27.054624,6.574320186456855,0.1333548982126015
27.057016,6.582702572352728,0.1331294034884749
27.059404,6.59215589343524,0.1328828761301647
27.061784,6.605892955264308,0.1325568880759219
27.06418,6.621632117839792,0.1322018698383675
27.066568,6.636579884482356,0.1318521138092299
27.068948,6.656183478923815,0.1314424555084676
27.071348,6.671363562991857,0.1311174706029052
27.073736,6.680257805566928,0.1309023622547716
27.076116,6.690222983328639,0.1306700802288032
27.07852,6.697254894784155,0.1304807249415538
27.080908,6.71136404366556,0.130181579519623
27.083288,6.732550429972854,0.1297709319505176
27.085688,6.756809852213203,0.1293130298409677
27.088076,6.784142310386606,0.1288052565402351
27.090456,6.804677070387842,0.1283963614332841
27.092852,6.829635340762492,0.1279095810445524
27.095236,6.853662445577362,0.1274335230375144
27.097615999999995,6.872893952966481,0.127022010235773
27.100024,6.886258927743211,0.1266935698015071
27.102412,6.894036909161271,0.1264302463885781
27.104792,6.899812789832912,0.1261972165547415
27.107188,6.9069391449449125,0.1259307512373024
27.109576,6.915276204870413,0.1256409557269148
27.111956,6.920959537743438,0.1253762029123808
27.114356,6.926642870616464,0.1251119099849583
27.11674,6.930603641996793,0.1248611658303824
27.119119999999995,6.940338398190896,0.1244991317158202
27.12152,6.954217125504693,0.1240720662298995
27.123908,6.963160485765876,0.1237118822437136
27.126287999999995,6.9719640764002,0.1233581287236736
27.128684,6.973830199235496,0.1231001412589877
27.131072,6.974113530204954,0.1228495060143207
27.133455999999995,6.96932172449494,0.1226715157101084
27.135852,6.963598753225149,0.1225036720898611
27.13824,6.961879983448192,0.1222809921314089
27.140623999999995,6.954154911431983,0.1221402917775229
27.14302,6.948571709789052,0.1219650543835831
27.145408,6.946201313706036,0.1217381624577944
27.147804,6.945833018369436,0.1214838139087106
27.1502,6.951610794898946,0.1211419328586723
27.152587999999994,6.958599276241956,0.1207768106597538
27.154972,6.961583556092131,0.1204635663191285
27.157368,6.960423864822612,0.1202114602856831
27.159755999999994,6.959915799859151,0.1199641787919817
27.16214,6.960478670082329,0.1197005770495597
27.164536,6.965976907358119,0.1193767750062987
27.166923999999995,6.96984513093983,0.1191005448630605
27.169304,6.9738531241484,0.1188184580314509
27.1717,6.979723448476529,0.1185163739239882
27.174088,6.987084016871875,0.1181762915633172
27.176472,6.996586455640498,0.117801217258692
27.178872,7.0038072544089855,0.1174671639256977
27.181259999999995,7.013030153923888,0.1171051495916408
27.18364,7.021461657505875,0.1167454151797947
27.186035999999994,7.026028729221886,0.1164306914789592
27.188424,7.031666736124536,0.1160983048046929
27.190804,7.033160771907491,0.1158242724691641
27.193203999999994,7.034375268436725,0.1155659211353117
27.195592,7.03652093052574,0.1152990877708286
27.197972,7.034382851868202,0.1150981144652272
27.200371999999994,7.031313607650884,0.1149063774704176
27.202756,7.038115097538791,0.1145988781360783
27.20514,7.044916587426698,0.1142896661538963
27.207536,7.04971597656819,0.1140045428936199
27.209924,7.0513025601497645,0.1137674473658502
27.212304,7.044740971118811,0.1136370647096778
27.214704,7.038458921341577,0.1134924383876963
27.217088,7.031245706004566,0.1133563713111845
27.219472,7.027245296227469,0.1131732070029297
27.221868,7.022965347196654,0.1130041412063432
27.224256,7.022829369285533,0.1127807328395069
27.226636,7.022041765068352,0.1125509505001862
27.229036,7.021533700104892,0.1123066279166424
27.23142,7.020885865514574,0.1120689485529614
27.233819999999994,7.022891757976728,0.1118129635565829
27.236216,7.027039520812161,0.1115266481219156
27.238603999999995,7.035331254767287,0.1111852004656879
27.240984,7.041620887975997,0.1108678905542691
27.243379999999995,7.048050290811566,0.1105451736963559
27.245771999999995,7.054339924020276,0.1102286181442756
27.248152,7.05727698204221,0.1099639527629022
27.250547999999995,7.053276572265114,0.1097794260048415
27.252936,7.053280363980853,0.1095487134375899
27.25532,7.058499062002924,0.1092506865311893
27.257715999999995,7.064788695211633,0.1089363779863305
27.260104,7.076293234726675,0.1085522994762722
27.262484,7.084584968681802,0.1082134779507762
27.264883999999995,7.093528328942987,0.107881760076903
27.267267999999994,7.102331919577312,0.1075601822216688
27.269644,7.1120666757714135,0.1072319134222226
27.272051999999995,7.116586525659184,0.1069712387073258
27.274435999999994,7.125482664092124,0.1066867896991834
27.276816,7.138894860697096,0.1063735058656419
27.279212,7.154960784354543,0.1060456202967758
27.281596,7.1705148513327925,0.1057064922286294
27.283992,7.184718443870684,0.1053966480140977
27.286392,7.201063906781851,0.105062669572972
27.288776,7.217549139319879,0.1047214471647663
27.291156,7.230961335924851,0.1044154953464554
27.293555999999995,7.24800564697032,0.1040497095627602
27.295939999999995,7.2702648643221215,0.1036213397594653
27.298324,7.291313376860423,0.1032118409075882
27.300728,7.310359788652308,0.1028260014059754
27.303116,7.324331063764721,0.1024970570183006
27.305499999999995,7.342446309996829,0.1021226256619855
27.307896,7.356417585109242,0.1017952013191031
27.310284,7.371320025781434,0.101459149104964
27.312664,7.38342896977429,0.1011438291676052
27.315068,7.388320906714398,0.1009096067026402
27.317456,7.390279577348311,0.1007029550396087
27.319835999999995,7.392098478355362,0.1005019487016649
27.322232,7.389541090817244,0.1003229480942948
27.32462,7.382467645107093,0.1001723496472571
27.327,7.373671637904246,0.1000288841194198
27.329396,7.363525156261041,0.0999117515453016
27.331784,7.353518444244695,0.0997877781290195
27.334164,7.339088221854935,0.099723286066373
27.33656,7.32652033058473,0.099645054592899
27.338947999999995,7.315814770434083,0.0995533592111141
27.341328,7.301477095842939,0.0995204062978942
27.343723999999995,7.287279190878657,0.0994797391595509
27.346112,7.27615432184743,0.0994065367993239
27.348492,7.264098287256424,0.099339415628374
27.350888,7.253252957478917,0.0992524584724396
27.353276,7.239474361395215,0.0991904291787329
27.355656,7.233052541991123,0.0990451793188336
27.358052,7.227050031467611,0.0988801266838398
27.36044,7.224260326504014,0.0986767268656929
27.36282,7.230829498966444,0.0983719088917039
27.365216,7.237398671428873,0.0980655504873401
27.367604,7.247040879824358,0.0977271747388741
27.369988,7.260407750458958,0.0973648966724931
27.372384,7.272563916280057,0.0970209197786291
27.374772,7.283928686168238,0.0966769259307559
27.377151999999995,7.297295556802837,0.0963146110083178
27.379548,7.309731261877657,0.0959586068679933
27.381936,7.322586275833058,0.0955824304852072
27.384316,7.33437035460182,0.095220004167
27.386716,7.347365138184081,0.0948398084469249
27.389104,7.361570626579841,0.0944403636178411
27.391484,7.372842848669406,0.0940672850538352
27.39388,7.381042034825914,0.0937247617784964
27.396268,7.39217448728862,0.0933593294886966
27.398647999999994,7.402887630870743,0.0930126885192405
27.401044,7.409317033706313,0.092713927778024
27.403431999999995,7.41053153023555,0.0924721367001722
27.405815999999994,7.411606257137927,0.0922364483942757
27.408212,7.411190739973086,0.0920327430371803
27.410596,7.404489381315273,0.0918956137551214
27.412976,7.400721288963655,0.0917349633553039
27.415392,7.398163901425535,0.0915565603094267
27.41778,7.391742082021443,0.091406527480456
27.42016,7.390115860043101,0.0912229731569038
27.422556,7.38807032918418,0.091058079092574
27.424944,7.38509363276548,0.0908988328170464
27.427328,7.383048101906559,0.0907340476996512
27.429724,7.381654197353696,0.0905764192519993
27.432112,7.380679601681413,0.090399938613096
27.434492,7.37877384044935,0.0902290674082482
27.436904,7.3779390144039265,0.0900470183938611
27.439291999999995,7.378826749851201,0.0898610733088711
27.441692,7.384137995671889,0.0896236902417822
27.444088,7.384374104813105,0.0894304364808193
27.446476,7.389033724327734,0.0891866768403583
27.448856,7.401561977201172,0.08888419447295
27.451252,7.414741856380665,0.0885890026816066
27.45364,7.433648498545692,0.0882606706496027
27.456024,7.452974449591299,0.087914462032139
27.45842,7.474442271010181,0.0875453669623975
27.460808,7.495118696496145,0.0871767928139803
27.463187999999995,7.510580215675779,0.086857450705758
27.465588,7.52562242597483,0.0865548954447599
27.467976,7.53572926922127,0.0862897432694135
27.47036,7.549980083587404,0.0859881370418091
27.472756,7.564230897953538,0.0856872212506683
27.475144,7.578341942692813,0.0853929650727207
27.477528,7.590450886685668,0.0851136234210994
27.479924,7.601069586611307,0.0848638088492124
27.482312,7.610477581723446,0.0846311585581123
27.484696,7.619745807208724,0.0844059256127296
27.487092,7.624870061574308,0.08421712964626
27.48948,7.6237084744469215,0.084086626045713
27.491864,7.62669085843923,0.0839189285301536
27.49426,7.624458336125205,0.0837990879500727
27.496648,7.61677859007937,0.0837003595679277
27.499032,7.611380484033673,0.0835745325124189
27.501428,7.598393283882889,0.0834899167128419
27.503816,7.586337249291883,0.0834004872211793
27.5062,7.572279113954461,0.0833254049779389
27.5086,7.5571500434304,0.083260141635331
27.510988,7.544162843279615,0.0831739291644161
27.513368,7.533317513502108,0.0830668262068187
27.515767999999994,7.524893593351599,0.0829263139143909
27.518152,7.512465471708255,0.0828150648879213
27.520536,7.496964314131857,0.0827284606334035
27.522932,7.482673861368957,0.0826250667177068
27.52532,7.471596214165973,0.0824904695854576
27.5277,7.462660437336265,0.0823352096877056
27.530096,7.452933264573639,0.082177516642865
27.532484,7.440412595131678,0.082032038518027
27.534868,7.433246601622912,0.0818349560026539
27.537271999999994,7.431015975166756,0.0816040741349419
27.53966,7.4287853487106,0.0813738910560682
27.542044,7.427485887814224,0.0811388023684017
27.544439999999994,7.427908988410543,0.0809011856815963
27.546828,7.42353649158111,0.0806899975200314
27.549208,7.420886556244373,0.0804757942882918
27.551607999999995,7.415163584974582,0.0802858625898113
27.553996,7.414515750384263,0.0800576866527512
27.556376,7.416801182100139,0.0798119921978321
27.558772,7.422951045681988,0.0795455601831564
27.56116,7.430451383704196,0.0792580155508749
27.563544,7.438743117659322,0.0789738780802619
27.56594,7.447454160495028,0.0786714929301201
27.568328,7.460309174450429,0.0783354675136556
27.570712,7.4713018572862735,0.0780078896910302
27.573111999999995,7.480292439375701,0.0776944261090097
27.5755,7.488631395159071,0.0773738326413928
27.57788,7.499624077994916,0.0770483372461578
27.580276,7.511408156763678,0.0767243034919429
27.582664,7.518908494785887,0.0764391723346701
27.585048,7.526548602434955,0.0761494166715787
27.587444,7.52911357340455,0.0758943464562038
27.589836,7.531678544374145,0.0756387534749497
27.592216,7.534243515343742,0.0753834334517032
27.594615999999995,7.538531047806035,0.0751260159306806
27.597,7.543889515454965,0.0748590142006702
27.599384,7.549108213477037,0.0745967054787584
27.60178,7.550322710006274,0.0743614276794466
27.604167999999994,7.5495351057890945,0.0741397564423547
27.606552,7.543020738586385,0.0739442432479851
27.608951999999995,7.535295666570176,0.0737640302383806
27.61134,7.527430824927108,0.0735899831394105
27.61372,7.517144573657043,0.0734453148189828
27.616119999999995,7.509000192760253,0.0732827093836029
27.618508,7.500436502982883,0.0731373875391023
27.620888,7.49401468357879,0.072973895725192
27.623287999999995,7.486242389734339,0.0728308385135223
27.625676,7.478749635143608,0.0726762040525732
27.62806,7.470325714993098,0.0725240248767425
27.630455999999995,7.463392038909808,0.0723446389272732
27.632844,7.456458362826517,0.072165516876167
27.635224,7.455391219355617,0.0719566257544699
27.63762,7.45860781663127,0.0717135262572594
27.640012,7.464897449839979,0.0714517201843309
27.642396,7.473189183795105,0.0711788183546407
27.644804,7.481760457003951,0.0708949987383428
27.647192,7.490611269466519,0.070598238503362
27.649576,7.498530916369308,0.0703035186646882
27.651972,7.506450563272096,0.070009262830514
27.65436,7.518234642040859,0.0696982074631738
27.656744,7.530158490436482,0.069382069642252
27.65914,7.539149072525909,0.0690796852594945
27.661528,7.554285726481448,0.0687388827248017
27.663912,7.563136538944017,0.0684434354250045
27.666308,7.573337825846942,0.0681279854185787
27.668696,7.580186537563092,0.0678434606272479
27.671076,7.585172918159685,0.0675627006025505
27.673472,7.588296967636722,0.0672874489311553
27.675864,7.598638024166509,0.0669679692776403
27.678239999999995,7.609490937375492,0.0666637132656718
27.68064,7.61848151946492,0.0663649706719988
27.683028,7.628822575994706,0.066049647752619
27.685407999999995,7.636881992524356,0.0657583045227024
27.687804,7.636933006068337,0.0655066423349599
27.690192,7.637403328492898,0.0652389756498076
27.692572,7.6375941116637405,0.06498289084067
27.694968,7.644862132260472,0.0646918482157929
27.697356,7.655994584723176,0.0643879320664585
27.699735999999994,7.665404475693183,0.0640821681827895
27.702132,7.674674597036331,0.0637833708820986
27.704519999999995,7.684736114312397,0.0634892649478046
27.7069,7.696799732334879,0.0631855548808533
27.709295999999995,7.704859148864529,0.0629016639966356
27.711684,7.717062536513872,0.0625936825299851
27.714068,7.728194988976577,0.0622932959184683
27.716463999999995,7.742540246999197,0.0619711312222525
27.718852,7.759818771328012,0.061637473183629
27.721232,7.77481565565669,0.0613227687373654
27.723631999999995,7.779522496999563,0.0610645785189211
27.72602,7.784508877596157,0.060795598432494
27.7284,7.788144783752392,0.0605442066498168
27.730796,7.781630416549682,0.0603415145804611
27.733183999999994,7.772182783040778,0.0601489207759218
27.735568,7.77074355251754,0.059920798691647
27.737964,7.765672207553807,0.0597307503282579
27.740351999999994,7.7604610929632125,0.059546285519813
27.742748,7.748032971319869,0.0594004577603341
27.745144,7.733462979303248,0.0592686079059713
27.747532,7.719404843965825,0.0591513450135006
27.749911999999995,7.703204838255126,0.0590478204113384
27.752312,7.682349004745535,0.0589505398237079
27.7547,7.661772710489664,0.0588413615518874
27.757079999999995,7.645340387353486,0.0587097720667745
27.75948,7.628908064217309,0.0585778855488464
27.761868,7.613406906640911,0.0584442773192034
27.764247999999995,7.598045518691373,0.058304879927831
27.766644,7.583894835555333,0.0581531212833679
27.769032,7.576681620218323,0.0579773367984968
27.771415999999995,7.575614476747424,0.057772311428154
27.773812,7.577620369209577,0.0575543038200809
27.7762,7.582978836858509,0.0573115258192438
27.77858,7.600349908985942,0.0570239092882275
27.780984,7.622004721859928,0.0567117827314792
27.783372,7.636861836561747,0.0564178411929459
27.785751999999995,7.653209195330784,0.0561004701963759
27.788148,7.66983609335354,0.0557729480205584
27.790536,7.685671595443379,0.0554393193957096
27.792916,7.701786636786938,0.0550955024958005
27.795316,7.721114483690414,0.0547338393435305
27.797704,7.743143279474606,0.0543392663923462
27.800084,7.77089883824433,0.0539347011843093
27.802484,7.796512526640775,0.0535430677692717
27.804868,7.812767337611196,0.053195279441026
27.807252,7.824086781529003,0.052861251521637
27.809648,7.83568576470053,0.0525172060917556
27.812036,7.843140776752365,0.0521918069193796
