Time,Force,Position
31.191632,2.562652400994782,0.153848526932144
31.194032,2.567077807226066,0.1532712750285186
31.19642,2.568756938606257,0.1527034189156252
31.1988,2.5669909470010563,0.1522454524637194
31.2012,2.5661561209556334,0.1517521333566644
31.203588,2.5698373530822427,0.1511059557671283
31.205972,2.575380916328408,0.1503816808007997
31.208368,2.579434235507354,0.1497835730714874
31.210756,2.581066145059302,0.1493331336924687
31.21314,2.582558284984391,0.1489087051065824
31.215536,2.586424612708233,0.1484370728426775
31.217924,2.5925253586039707,0.1479375458739763
31.220308,2.603281932298599,0.147261936701997
31.222704,2.617623398605481,0.1464996991203491
31.225092,2.629543455285365,0.1458842544173259
31.227476,2.6429537560324685,0.145145769973621
31.229876,2.6585059271528486,0.1442904528660844
31.232264,2.674989263833007,0.1434022093269038
31.234648,2.686537233460553,0.1427396030776993
31.237055999999995,2.700506612715097,0.1419303524492454
31.239444,2.7147555312233616,0.1410894892142374
31.241828,2.7234174563729563,0.1404613893584536
31.244224,2.7324986904031308,0.1397812956358127
31.246612,2.741347607007829,0.1390290641920568
31.248996,2.747263257306332,0.1383861039594588
31.251392,2.751596115738998,0.1377838572726993
31.25378,2.756860139731443,0.1371538260885614
31.256164,2.7618446244701675,0.1365625144829055
31.258564,2.7728354114481424,0.1357343563032144
31.260952,2.7804736232393417,0.1350709772431302
31.263327999999994,2.7871806694707626,0.1344366130868305
31.265728,2.795098420515682,0.1337380795537883
31.268111999999995,2.8030161715606017,0.1330574506323741
31.270492,2.803577145925912,0.1326928353150913
31.272892,2.807490695477998,0.1321689370346029
31.275279999999995,2.810984936149503,0.1316997188347943
31.27766,2.815410342380787,0.131206705890465
31.280055999999995,2.812898280813042,0.1309580604663351
31.282444,2.809966910364716,0.1307653499521073
31.284828,2.8048936695431124,0.1306691384329718
31.287228,2.798237636855674,0.1305907014659797
31.294391999999995,2.7736137109944643,0.1304969585484173
31.29916,2.757043514089296,0.1302858370698582
31.301556,2.74484770987143,0.1302680110360734
31.306328,2.72022378401022,0.130150408765208
31.308727999999995,2.710868698299932,0.1299333990056692
31.311116,2.7055178140824783,0.1295692614486632
31.3135,2.700027160238164,0.1292246194091985
31.315895999999995,2.688250664900879,0.1291309994276709
31.318284,2.6784762703100102,0.1289678452936989
31.320668,2.667351401278783,0.128884778300258
31.323068,2.6570179281804736,0.1287939444914368
31.325456,2.646684455082164,0.1286991030827984
31.327839999999995,2.6491549823952742,0.1281702334877065
31.330236,2.653767380081661,0.1275464848194021
31.332624,2.659310943327827,0.1268948842033662
31.335007999999995,2.66564590250691,0.126236691042435
31.337404,2.6690475953797983,0.1256712503687328
31.339796,2.6773846553052985,0.1249347262270494
31.342175999999995,2.6906570822834106,0.1240450520396466
31.344572,2.7013683300076647,0.1233139019862573
31.34696,2.721019146277365,0.1222828902171622
31.34934,2.738388322546928,0.1213539916795073
31.351735999999995,2.752544693256576,0.1205571979395234
31.354124,2.7669806032199435,0.1197257420652707
31.356508,2.781416513183312,0.1189214148741312
31.358903999999995,2.789846120907429,0.1183160390152862
31.361292,2.794690836019293,0.1177829947136829
31.363672,2.805821392624128,0.1170123869043258
31.366072,2.8180228844156017,0.1161970393338876
31.36846,2.8303641458339355,0.1153669755367873
31.37084,2.843916112065768,0.1144832442351075
31.37324,2.855465977551184,0.1136680629483628
31.375628,2.861149310424209,0.1130467421256124
31.378012,2.8692540529242323,0.1123225781979935
31.380408,2.876567399491338,0.1116014961126429
31.3828,2.879876544565609,0.1109908661187123
31.385183999999995,2.885187790386297,0.1103114669150734
31.38758,2.888217396206848,0.1097347428752257
31.389968,2.883378368668591,0.10937921224972
31.392351999999995,2.87588561407786,0.109066798373147
31.394748,2.8651800539272134,0.1088678941646758
31.397136,2.8555454289632047,0.1086306828794681
31.399519999999995,2.8460505736260564,0.1083748289831611
31.401916,2.837347114221826,0.1081147900752417
31.404304,2.822218043697765,0.1080852757042014
31.406684,2.809882469853039,0.1079951728954671
31.43536,2.656168459127561,0.1079854580192434
31.437756,2.651886614238876,0.1078369254032992
31.440144,2.6534713019625817,0.1075345629378467
31.442528,2.650260392260535,0.1073464511125026
31.444924,2.647049482558489,0.1071572761220905
31.447312,2.647703004722416,0.1068704869548484
31.449696,2.645563030207008,0.1066423677489524
31.452092,2.6506400627443494,0.1061834307805862
31.45448,2.656276173789132,0.1056541723798667
31.456864,2.659630644833777,0.1052146190285167
31.45926,2.66363674218448,0.104794518501556
31.461648,2.664802121027605,0.1045413413198524
31.464032,2.6639653991243133,0.1043441331163535
31.466428,2.660986806847744,0.1042231001392641
31.468816,2.6580082145711748,0.1041013758353779
31.4712,2.661315463787577,0.1037621171001295
31.4736,2.668766684123673,0.1032850122640532
31.475988,2.6742158037133508,0.1028683307222176
31.478368,2.6767316569968345,0.102533335125681
31.480768,2.6795270495340398,0.1021649384490537
31.483156,2.680320341324826,0.10185506527746
31.48554,2.678692223488616,0.1016587121311267
31.487936,2.675993170465768,0.1015009052517343
31.490324,2.6780897148686718,0.1012321583755402
31.492708,2.684050691137548,0.1008768578865227
31.495104,2.688940732219786,0.100562862173832
31.497492,2.695832874048441,0.1001951120786598
31.499876,2.6945768432645685,0.1000534549530714
31.502275999999995,2.693553129906173,0.0999826537671409
31.504664,2.696952926921192,0.0997556032733585
31.507044,2.6994215583764323,0.0995465828739642
31.509443999999995,2.701657872406196,0.0992637417413119
31.511835999999995,2.7080381575556527,0.0988584846550357
31.514216,2.717491478638165,0.0983694048886458
31.516616,2.730529692332932,0.097835128880801
31.519003999999995,2.747292568266811,0.0972557706573511
31.521392,2.760051242707856,0.0967769953716186
31.523788,2.775882953081956,0.0962214851021655
31.52618,2.7927855986426957,0.0956316724393199
31.52856,2.809268935322854,0.0950993020996986
31.53096,2.827474833495709,0.0945538920170331
31.533348,2.845029105362506,0.0939876213848763
31.53574,2.857368470922971,0.093564473712915
31.538135999999994,2.8675659661101585,0.0932062251270905
31.540524,2.87469042536429,0.0929332655206544
31.542912,2.878602079058508,0.0927542339302039
31.545312,2.881163258312365,0.0926401470276937
31.5477,2.894805876484946,0.0922612457170377
31.550084,2.905794767605051,0.0919085359377737
31.552484,2.91450201872502,0.0916411716133811
31.554872,2.9205555427925134,0.0913989361208208
31.55726,2.9312648946588986,0.0910859896215622
31.55966,2.938901210592228,0.0908527670433002
31.583628,2.8911379153634216,0.0907291752085898
31.586023999999995,2.88308418640738,0.0907224143571057
31.588428,2.876101392637977,0.0906843189326436
31.590816,2.871540008495572,0.0905519607674565
31.593212,2.869120494726444,0.0903580513395314
31.595608,2.8604151394643447,0.0903288369119622
31.597995999999995,2.8547828201353007,0.0902261955499684
31.600396,2.84714840005984,0.0901674184468033
31.602792,2.844961203716189,0.0900426889127184
31.605191999999995,2.838630036252844,0.0900206452563671
31.607588,2.8343009695359167,0.0899553941658157
31.60998,2.831182607632487,0.0898440315946204
31.612376,2.827924476102197,0.0897483960238677
31.617163999999995,2.8199179689744,0.0896345841652718
31.619564,2.812655635951276,0.0896257037876842
31.621964,2.8066040077416523,0.0895694005700786
31.624356,2.8074898473310563,0.089369454341993
31.626736,2.8133110539730724,0.0890719404472184
31.629135999999995,2.8168506206149515,0.0888500988820035
31.631524,2.8268157983766624,0.0884529242603803
31.633908,2.836501436884652,0.0880898114927834
31.636308,2.8463268450195023,0.0877159651939795
31.6387,2.8580145842739086,0.0873237598068516
31.641084,2.868631388341677,0.0869620925615374
31.643484,2.878596566103388,0.0865791745683968
31.645876,2.8864198734918207,0.086253554769485
31.648256,2.899458087186586,0.0858078609498517
31.650648,2.909982343455737,0.0853732559600278
31.653036,2.920646369351749,0.0849185546315482
31.655415999999995,2.930239460061122,0.084493783791691
31.657827999999995,2.938482076330136,0.0841266887638894
31.660216,2.9496579589053447,0.0837115612111382
31.662596,2.958552201480417,0.0833627665949298
31.664992,2.970007623309346,0.0829088162642313
31.667379999999994,2.985187707377389,0.0824095324026307
31.66976,3.00129895700521,0.0819096190207739
31.672156,3.013266235513337,0.0815077238174868
31.674544,3.0204379165957125,0.0811788236566145
31.676924,3.0278891369318086,0.0808164662909515
31.679331999999995,3.0311963861482107,0.0805470106434061
31.68172,3.035574570551251,0.0802533514390677
31.6841,3.038881819767653,0.0799869527272383
31.686496,3.039116033050999,0.0797816827245083
31.688883999999995,3.0377674544685096,0.0795649565895321
31.691264,3.0422854084984103,0.0792644730579999
31.69366,3.048805463274728,0.0789306654366041
31.696048,3.051321316558212,0.0786669117971642
31.698432,3.0527662346550564,0.0784266739937976
31.700827999999994,3.057423958311817,0.0781175590714047
31.703212,3.0614300556625205,0.0777876797562967
31.705596,3.0657156922669437,0.0774261652636783
31.707992,3.070420637751948,0.0770279642112931
31.710376,3.077546992863949,0.0765517969332238
31.71276,3.084533578349091,0.0760928577543842
31.715156,3.0877955015951186,0.0756679054084199
31.71754,3.0881241585349515,0.0752837167675572
31.719924,3.0916656210347,0.0748349653194508
31.72232,3.093856609094089,0.074430259744614
31.724708,3.0989808634596736,0.0739894521652476
31.727092,3.106107218571675,0.0735199187156489
31.729488,3.1105798466312016,0.0730591886069355
31.731876,3.11412130913095,0.0726054486417892
31.73426,3.1187337068173377,0.0721285017590651
31.736656,3.126930997115977,0.0716371102840326
31.739044,3.1232554525629763,0.071305961597218
31.741428,3.1197196776368363,0.0709622159015868
31.743824,3.1200483345766687,0.0705779003030302
31.746212,3.120376991516501,0.0701916307329726
31.748596,3.119494943642835,0.0698445492398583
31.750992,3.119544061328948,0.0694903048156737
31.75338,3.1214555101346173,0.0691233263294812
31.755759999999995,3.1188036789400115,0.0688668637552773
31.758156,3.12015604923824,0.0685615195493313
31.760544,3.121228880282748,0.0682841138589221
31.762927999999995,3.124164042446812,0.067993514436932
31.765324,3.128961535730434,0.0676917234052734
31.767712,3.1316171586407773,0.0674318194477748
31.770092,3.1405586230440923,0.0670702482247501
31.772492,3.146706590768072,0.0667282406942568
31.77488,3.152575019238332,0.0664161859757485
31.77726,3.160957405134206,0.0661153131214883
31.779656,3.167989316589721,0.0658571413453881
31.782044,3.173950292858597,0.0656174823581174
31.784428,3.178048938007917,0.0653904336170903
31.786824,3.1930892524491,0.0650354415414095
31.789212,3.207058631703644,0.0647028834527382
31.791591999999994,3.217023809465354,0.064420993349931
31.793988,3.2277803831599825,0.0641472761518297
31.796375999999995,3.2337413594288598,0.063909637266253
31.798759999999994,3.241424897190432,0.0636786235518952
31.801164,3.247385873459309,0.0634446829777982
31.803552,3.2548370937954045,0.063149294142029
31.805932,3.2540003718921127,0.0629731866216751
31.808328,3.256236685921876,0.0627584913172748
31.810716,3.2624772014444736,0.0625038831347426
31.8131,3.2667156162206537,0.0622711744803586
31.815496,3.273887297303029,0.0620164140513653
31.817884,3.2750526761461543,0.0618250290813466
31.820263999999995,3.2767299116684767,0.0616685178033194
31.82266,3.277615751257881,0.061503374155022
31.825047999999995,3.277710194914368,0.0613295718127883
31.827428,3.2822281489442684,0.0610764782816065
31.829828,3.2891675126011664,0.0607658474977338
31.832212,3.300390617004618,0.0603974702377652
31.834596,3.30588695842254,0.0600650575956055
31.836991999999995,3.310312364653824,0.0597476106124549
31.83938,3.3119442742057723,0.0594347562046715
31.841764,3.3127847878248025,0.0591114672655131
31.844159999999995,3.320562769242862,0.0587285420203533
31.846548,3.3266181891682254,0.0583422748623908
31.848932,3.3354671057729237,0.0579506070119061
31.851327999999995,3.3440364831239004,0.0575829560914653
31.853716,3.3596830979007666,0.0571443861035229
31.856096,3.372396446371438,0.0567324585860614
31.858492,3.382036758909054,0.0563608683179221
31.860879999999995,3.393958711446808,0.0559493455760885
31.863264,3.399082965812392,0.0555775718858295
31.86566,3.4111446879770058,0.0551567541827743
31.868047999999995,3.422554783835561,0.0547121604181989
31.870428,3.434104649320977,0.05425706073321
31.872828,3.445514745179533,0.0538148380938172
31.875215999999995,3.45585390585145,0.053393148934828
31.877612,3.4636318872695093,0.0530367216737447
31.880008,3.4648444879408773,0.0527761796773018
31.882396,3.4668484845451637,0.0525246259853283
31.88478,3.466990150029893,0.0522731061092896
31.887176,3.473929513686792,0.0519872329349837
31.889564,3.482731208463245,0.0516994709671338
31.891948,3.4875287017468666,0.0514438125354705
31.894344,3.492326195030488,0.051189241212995
31.896728,3.494190422007913,0.0509508541856336
