Time,Force,Position
32.117467999999995,6.482833754805484,0.1500233471002425
32.119848,6.535394543317914,0.1493581997769557
32.122248,6.577249771679697,0.1487001127907302
32.124632,6.604999642875814,0.1481659663901489
32.127016,6.627955812504047,0.1476027417141451
32.129411999999995,6.638481964631066,0.1471732685801555
32.1318,6.641326474854382,0.1468383640530338
32.134184,6.642448423585001,0.1465256540085931
32.136579999999995,6.640497336382565,0.1462722487739359
32.138971999999995,6.643481616232743,0.1459351818708916
32.141352,6.647257292015837,0.1455913820970524
32.143747999999995,6.651964133358709,0.1452347964419722
32.146131999999994,6.650152815783135,0.1449730366649093
32.148515999999994,6.642195426341448,0.1448250610885724
32.150912,6.632887562459403,0.1447154824245102
32.153299999999994,6.623812016002834,0.1446327191122264
32.15568,6.619252527718297,0.1444900431668411
32.15808,6.615065126486097,0.1443663989055682
32.160464,6.616185179358848,0.1441775291250095
32.162848,6.62210082965735,0.1439144602717492
32.165251999999995,6.631461602941244,0.1436140022417633
32.16764,6.639611671411641,0.1433430353368102
32.170019999999994,6.6442693950684015,0.1431532493909199
32.172416,6.653210859471715,0.1428779467751878
32.174803999999995,6.656657878314977,0.1427187481956021
32.177187999999994,6.6611758323448775,0.1425367612729161
32.179584,6.660758419322167,0.1424376578508075
32.181971999999995,6.660201236672595,0.1423470540151528
32.184355999999994,6.6617859243963,0.1422142169072924
32.186752,6.6570847706270335,0.1422007168314627
32.189139999999995,6.654385717604185,0.1421528169630474
32.19152,6.649032937528862,0.1421359434234764
32.19392,6.647544589319511,0.142058379941317
32.196307999999995,6.655554888163048,0.1417975021548553
32.198688,6.669059632566637,0.1414238501869943
32.201083999999994,6.678327858051917,0.1410910238964449
32.203472,6.683871421298082,0.1408118473637618
32.205852,6.690113832678548,0.1404927468911412
32.208256,6.69398205626026,0.1401888817946846
32.210643999999995,6.688398854617328,0.1400204671336341
32.213027999999994,6.681652169989142,0.1398375226891285
32.215424,6.678258060547731,0.1395847880695374
32.217811999999995,6.675143490360039,0.1393148539417601
32.220195999999994,6.669747280172212,0.1390947686004743
32.222592,6.665561774797882,0.1388453240601496
32.224979999999995,6.666032097222444,0.1385332022399832
32.227363999999994,6.6705066211398405,0.1381524888523388
32.265604,6.414028333085925,0.1378960745511599
32.267992,6.399877649949886,0.137886750013753
32.272768,6.37148373587919,0.1378287522453856
32.275156,6.357100735317673,0.1377879091535971
32.277536,6.349375663301465,0.1376525526860541
32.27994,6.346865497591589,0.1374214501505076
32.282328,6.34486718856091,0.1372016549295804
32.284707999999995,6.348595642515761,0.1368964373001483
32.287108,6.350461765351056,0.1366160479299122
32.289496,6.35488906744021,0.1362689841266198
32.29188,6.361830326954975,0.1358983683473867
32.294276,6.372915557589438,0.1354505000454868
32.296664,6.3827900834104,0.1350338586220985
32.299048,6.393316235537421,0.134622812727427
32.301444,6.410128229157412,0.1340953247559376
32.303832,6.426660683523683,0.1335856978504726
32.306216,6.443053368263095,0.13309008248111
32.308615999999994,6.458235348189006,0.132623408373518
32.311004,6.471275457741641,0.1321965396960055
32.313388,6.482173696921,0.1318127699088926
32.315783999999994,6.492652627219776,0.1314545600543329
32.318172,6.501781083078194,0.1311345337096009
32.320552,6.510629999682891,0.1308286803271116
32.322951999999994,6.513984470727536,0.1306325142007557
32.32534,6.518549646585679,0.1304094750890732
32.32772,6.5211127216974045,0.1302189410734749
32.330119999999994,6.527540228675105,0.129973881473522
32.332508,6.536901001959,0.1296890152073689
32.334888,6.54905527192223,0.1293695255465119
32.337287999999994,6.5632116426318765,0.1290235507389941
32.339676,6.578858257408744,0.1286359490255996
32.342056,6.59422533293189,0.1282667190956103
32.344455999999994,6.610523574014814,0.1278876425068381
32.346844,6.62467994472446,0.1275464844813358
32.349224,6.633761178754633,0.1272857392520803
32.35162,6.64177147759817,0.1270434769771583
32.354012,6.643775474202454,0.1268903648625571
32.356392,6.646710636366517,0.1267260328601552
32.358791999999994,6.651787668903856,0.1265233453462213
32.36118,6.65528190957536,0.1263267030943678
32.36356,6.658636380620006,0.1261380068505219
32.365956,6.661059686104871,0.1259602941629656
32.36834399999999,6.667626962709432,0.1257147671512305
32.370728,6.679548915247184,0.1253738722214424
32.373124,6.688258062225022,0.1250910488041027
32.375516,6.699620936255335,0.1247841002747971
32.377896,6.706839839165953,0.1245456419058396
32.380295999999994,6.710054540583736,0.1243679159822222
32.382684,6.713129472374661,0.1241987000203239
32.385064,6.71271205935195,0.1241002801337052
32.387463999999994,6.710013006329099,0.1240457444683876
32.389852,6.7063827877464695,0.1240016174164538
32.392232,6.700750468417424,0.1239858731048227
32.394631999999994,6.695537457968962,0.1239472958706473
32.39702,6.694188879386472,0.1238593110100627
32.3994,6.694842401550398,0.1237429173401812
32.401796,6.701641995580435,0.1235330964451059
32.404183999999994,6.708301819983613,0.1233310351986296
32.406564,6.716963745133208,0.1231021170561138
32.408964,6.728419166962136,0.1228424769813718
32.411348,6.740293897671645,0.1225606116099357
32.413732,6.752168628381156,0.1222779903871204
32.41612799999999,6.758828452784334,0.1220770434734544
32.418516,6.760552910134898,0.1219426611664371
32.420896,6.7645590074856,0.1217651906242313
32.423292,6.764560903343469,0.1216437661618733
32.42568,6.764982108081921,0.1214991561239411
32.428064,6.764332377633733,0.1213722764521506
32.43046,6.762891251252624,0.1212482091411414
32.432848,6.760146872259399,0.1211138006961035
32.435232,6.760615298826092,0.1209262023753404
32.437628,6.761083725392785,0.1207386926557642
32.440016,6.764625187892532,0.1205060989957645
32.4424,6.772031082258254,0.1202272379969952
32.444796,6.777434875877558,0.1199770617026193
32.447184,6.782187043190805,0.1197225878992269
32.449563999999995,6.784797340130777,0.1195036657909277
32.451964,6.7898290466977445,0.1192368503876704
32.454348,6.790577012518158,0.1190381882403814
32.456731999999995,6.789183107965295,0.1188735234032319
32.459132,6.789371995278267,0.1187051631837176
32.46152,6.7915629833376565,0.1185107229999521
32.463904,6.802041913636433,0.118198588309551
32.466303999999994,6.817316441360962,0.1178324439474691
32.468692,6.832311429831771,0.1174832205886704
32.471072,6.850798763116216,0.1170698326130746
32.473471999999994,6.873010758639772,0.1166225620559145
32.47585599999999,6.894431358230413,0.116174840427797
32.47824,6.916643353753971,0.1157270743637348
32.480636,6.9415090763300045,0.1152599280423959
32.48302399999999,6.963581302226702,0.1148229545026806
32.485408,6.985141671444202,0.1143739642002352
32.487804,7.002977378422588,0.1139619999204645
32.49019199999999,7.01787981909478,0.1135872828594497
32.492572,7.032922029393832,0.1132060814041872
32.494972,7.048755635625802,0.1128251785804901
32.49735999999999,7.062866680365076,0.1124538219208424
32.49974,7.073625149917572,0.1121384058209071
32.502136,7.085734093910429,0.1117913337787646
32.50452799999999,7.10198700902298,0.1113902355512486
32.506908,7.116377593015973,0.111008171696889
32.509308,7.130907946635827,0.1106214973178049
32.51169599999999,7.136079422829655,0.1103608689133761
32.514076,7.139248798277066,0.1101249456727621
32.516476,7.1377623459255854,0.1099297755939306
32.51886399999999,7.133994253573968,0.1097723472167037
32.521248,7.1254305637965984,0.1096631529881418
32.523644,7.117006643646088,0.109546547915353
32.526031999999994,7.108070866816382,0.1094168333416344
32.528416,7.097272758867118,0.1093031676242999
32.530812,7.0841930109177165,0.1092266871013087
32.533199999999994,7.074558385953709,0.1091310379902141
32.53558,7.067857027295895,0.109003798515864
32.53798,7.060224503078304,0.1088843436886108
32.540367999999994,7.052591978860713,0.1087646810270972
32.542748,7.042165957963785,0.1086686672896208
32.545148,7.035604368932833,0.1085335699731064
32.547535999999994,7.032255585461795,0.1083539885704808
32.549916,7.034913104230009,0.1081082427285338
32.552316,7.03263525594561,0.1079151555455785
32.554703999999994,7.028634846168514,0.1077300940876266
32.55708799999999,7.021421630831504,0.1075884346873634
32.559484,7.02263612736074,0.1073375490453251
32.561871999999994,7.025061328703476,0.1070659685336797
32.56425599999999,7.033353062658603,0.1067348233682809
32.56666,7.042715731800367,0.1063891623800672
32.569047999999995,7.054499810569129,0.1060007560347701
32.571431999999994,7.070288090830726,0.1055698347317004
32.573832,7.0835151918384645,0.1051875395119022
32.57622,7.095811127286426,0.1048116351519907
32.578599999999994,7.112111264227219,0.1043909394916052
32.581,7.12361580374226,0.1040159527948836
32.583388,7.132838703257165,0.103677046721098
32.585767999999995,7.139919732398792,0.1033650894414245
32.588168,7.147000761540419,0.1030536569101652
32.590556,7.158737618480939,0.1027063154944023
32.592935999999995,7.166470273928624,0.1024028292257945
32.595336,7.169547101577418,0.1021361277932584
32.597724,7.166757396613822,0.1019279709901711
32.600103999999995,7.166249331650363,0.1016847328102277
32.6025,7.16774336743332,0.1014200649603077
32.604887999999995,7.171519043216417,0.1011201546013062
32.607271999999995,7.168217481573622,0.1008976404016719
32.609672,7.160911718437994,0.1007163499356805
32.61206,7.152674789742589,0.1005422493011468
32.614444,7.14671950104732,0.1003343599947087
32.61684,7.139134198657971,0.1001665827959279
32.619228,7.128475860335568,0.1000321722812783
32.621612,7.122241032386579,0.0998374603866539
32.62401199999999,7.118520161863204,0.0996359664367232
32.6264,7.114939060966688,0.0994282814975793
32.62878,7.11457076563009,0.0991808019984161
32.63117999999999,7.111688512867874,0.0989381984522586
32.633568,7.112019065665576,0.0986547283689989
32.635952,7.112489388090138,0.0983648335893205
32.63834799999999,7.109235048275587,0.0981019321895326
32.640736,7.107982809207453,0.09781876873387
32.64312,7.11017569312471,0.097522497132757
32.64552,7.1100869370418325,0.0972581218859501
32.647907999999994,7.110649807265013,0.097001373480827
32.65029199999999,7.112935238980889,0.0967395177151518
32.652688,7.114149735510125,0.096490683765047
32.65508,7.118297498345558,0.0962152339264301
32.65745999999999,7.127520397860463,0.0958880844973067
32.659859999999995,7.134741196628951,0.0955809493744392
32.662248,7.140471751330221,0.095308705468664
32.66462799999999,7.149554881218266,0.0949924408069899
32.667027999999995,7.159569176666088,0.0946701692345576
32.669416,7.166230896927136,0.0943935565305484
32.6718,7.1743828612554,0.0940864354793116
32.674195999999995,7.181463890397028,0.093792876729974
32.676584,7.18505257472502,0.0935495798838027
32.678968,7.19515941797146,0.0932652662205566
32.681368,7.205126491591039,0.0929882132809841
32.683752,7.211880759650702,0.0927474034636226
32.686136,7.2194264236432835,0.0925072924884719
32.688536,7.228974188382282,0.0922505058427619
32.690923999999995,7.237730557188364,0.0919937209491423
32.693307999999995,7.250491127487278,0.091700536960601
32.695704,7.259247496293359,0.0914426636932075
32.698091999999995,7.26199756286019,0.0912381257329803
32.700475999999995,7.268612061292994,0.0910053651623637
32.702872,7.277088890845354,0.0907625496064466
32.70526,7.285146411517135,0.09054115108548
32.707643999999995,7.293995328121833,0.0903207182008042
32.71004,7.298048647300779,0.0901333224953304
32.712428,7.296095664240474,0.0899980147922676
32.714811999999995,7.293863141926449,0.0898756502438227
32.71721599999999,7.2949831947992,0.089711446495979
32.719604,7.28995717580584,0.0896051587893477
32.721984,7.28493115681248,0.0894987742658025
32.72438,7.284328648192535,0.0893388191453309
32.726768,7.281212182146974,0.0891825364409016
32.729147999999995,7.279958047220971,0.0890162742855673
32.73155199999999,7.284849984161078,0.0887938465025784
32.73394,7.289090294795128,0.0885638487120947
32.73632,7.290257569496122,0.0883623659539572
32.738716,7.292356009756894,0.088156323224468
32.741104,7.29231257964439,0.0879730161827631
32.743483999999995,7.299346386957775,0.087730235548838
32.745884,7.314668136510547,0.0874107476519371
32.748272,7.325194288637568,0.0871233465851963
32.750651999999995,7.331995778525475,0.0868558439314196
32.753048,7.336283310987768,0.0865910207869286
32.755436,7.341641778636698,0.0863158527652821
32.757816,7.35300654852488,0.0859930551748395
32.760212,7.37088947733151,0.0856368565471429
32.7626,7.388120779832082,0.0852727888184926
32.764979999999994,7.403349981586238,0.0849268769514836
32.767376,7.425656420766281,0.0845238605001981
32.769763999999995,7.443818888826632,0.0841559824256385
32.772147999999994,7.457977155394149,0.0838203900017715
32.774544,7.469853781961528,0.0835125783551259
32.776931999999995,7.479868077409351,0.0832153904129426
32.779312,7.482805135431285,0.0829746802997615
32.781716,7.486533589386136,0.0827357264366272
32.784104,7.493335079274042,0.0824717577508278
32.786483999999994,7.498134468415532,0.0822230858081459
32.78888,7.504144562370522,0.0819574968010565
32.791267999999995,7.506010685205817,0.0817294972665436
32.793648,7.501730736175002,0.0815522243644014
32.796043999999995,7.501175449383299,0.0813581536272307
32.798432,7.502482493711153,0.0811553589950448
32.800816,7.504301394718206,0.0809665774070721
32.803211999999995,7.50411819497884,0.0807923337368241
32.805595999999994,7.503934995239477,0.0806191348405179
32.80797999999999,7.502169003634275,0.0804428646846406
32.810376,7.50226534314863,0.0802587674790697
32.812763999999994,7.501011208222627,0.0800964748893118
32.815144,7.499617303669764,0.0799414059340378
32.817547999999995,7.506371571729428,0.079726342812474
32.819936,7.514708631654927,0.0795151351297049
32.822315999999994,7.527841289006179,0.0792797234846529
32.824712,7.542184651170929,0.0790299930482147
32.827099999999994,7.563325711507848,0.0787423150299609
32.829483999999994,7.586608642218044,0.0784377283213153
32.831883999999995,7.607889472181823,0.0781483415648486
32.834272,7.631451942145741,0.0778353375917044
32.836651999999994,7.657947678415852,0.0775086093691208
32.839051999999995,7.683652018753047,0.0771798215507666
32.84144,7.711358459836658,0.0768379513171636
32.843819999999994,7.737202569800712,0.0765051255726732
32.846219999999995,7.762906910137906,0.076178859583104
32.848608,7.789030559355683,0.0758359696114106
32.850987999999994,7.818227244506512,0.0754729789997148
32.853384,7.844350893724287,0.0751331812876267
32.855776,7.867541276635865,0.0748097709449241
32.858155999999994,7.891011198801165,0.0744772403640725
32.860552,7.914760660220186,0.0741327049272669
32.862939999999995,7.933574754586594,0.0738170210326857
32.865323999999994,7.950386748206586,0.0735172152116459
32.86772,7.966407345893659,0.0732145825265439
32.870107999999995,7.9799139861551165,0.0729120114371057
32.872488,7.990207820856661,0.072635632870495
32.874888,7.995845827759313,0.0723748482081558
32.877275999999995,7.998131259475189,0.0721458483365318
32.879656,8.000556460817926,0.0719115445373068
32.88206,8.00256235328008,0.0716947846663488
32.884448,7.997910317196927,0.0715031366387265
32.886827999999994,7.992466885180854,0.0713080736067227
32.889224,7.987163222791644,0.0711074308666333
32.891611999999995,7.980928394842654,0.0709092821960694
32.893995999999994,7.978046142080441,0.0706816291774301
32.896392,7.971951083758311,0.0704778600077137
32.898779999999995,7.9610604280104305,0.0702925077344886
32.90116,7.9512407074491875,0.0700986927941333
32.903555999999995,7.94528541875392,0.0698888693784441
32.905944,7.937048490058514,0.0697006715165156
32.90832399999999,7.932815762855942,0.0694917667550999
32.910723999999995,7.92751210046673,0.069289751605628
32.913107999999994,7.919275171771324,0.0691008762063267
32.91549199999999,7.913180113449195,0.0688960100227303
32.917888,7.906665746246485,0.0687075958346404
32.920275999999994,7.904946976469528,0.0685019395123788
32.922656,7.909094739304961,0.068271963802227
32.925051999999994,7.9136618110209715,0.068025238060658
32.92744,7.915947242736848,0.0677991900948944
32.929824,7.916649882586887,0.0675670143947941
32.932219999999994,7.924010450982236,0.0673134828689875
32.934608,7.935887077549616,0.0670550398610043
32.936992,7.947623934490135,0.0668026650588673
32.939387999999994,7.961362892177071,0.0665411490989639
32.941776,7.970818109117452,0.0663112136195297
32.944156,7.986559167550805,0.066042328309629
32.946552,8.006024888223271,0.0657650682591094
32.94893999999999,8.026701313709237,0.0654764491676082
32.951324,8.045375638448785,0.0651988724024447
32.95372,8.069264869494663,0.0648923991344962
32.95610799999999,8.087147798301293,0.0646143658805855
32.958504,8.111176798974034,0.0643044582647652
32.960896,8.134274634086996,0.0639960289526024
32.963283999999994,8.155370368453541,0.0636976129396494
32.965667999999994,8.177537038006728,0.0633930359474334
32.968064,8.197189750134296,0.0630855448217451
32.970451999999995,8.210696390395755,0.0628109071833313
32.972832,8.224854656963272,0.0625452754959144
32.975232,8.242365498717566,0.0622538077204747
32.977619999999995,8.260667736404777,0.0619663842470798
32.98,8.273894837412515,0.0617036801374336
32.982395999999994,8.284607980994638,0.0614370267619611
32.984784,8.293319023830346,0.0611784084544377
32.987164,8.299888196292775,0.0609336753576998
32.989563999999994,8.308599239128483,0.0606758505067612
32.991952,8.313957706777414,0.0604446151215774
32.994332,8.319595713680064,0.0602040548779821
32.996728,8.319879044649523,0.0599957355831823
32.99912,8.321373080432481,0.0597762144250244
33.0015,8.31565010916269,0.0595921631593638
33.003899999999994,8.312860404199093,0.0593983890296789
33.006288,8.309139533675717,0.0592070622006095
33.008672,8.308212159831678,0.0590118379227082
33.011076,8.310497591547556,0.0587981792172115
33.013464,8.314924893636707,0.0585733724803982
33.015848,8.318001721285501,0.0583648942131111
33.018244,8.328435325613903,0.0581197025503357
33.020636,8.340219404382665,0.0578592310003754
33.023016,8.35079277833793,0.0576107414504339
33.025412,8.361645691546915,0.0573529131398204
33.0278,8.375059784009755,0.0570681721108666
33.030184,8.383119200539404,0.0568119969957905
33.032584,8.396393523375385,0.0565320674795572
33.034972,8.41381181733106,0.05623489975417
33.037352,8.42908824091346,0.0559500212502358
33.039752,8.445715138936217,0.0556504514884497
33.04214,8.463133432891892,0.0553570543585342
33.04452,8.488979438713818,0.0550237365837767
33.046916,8.513474970095382,0.0547072952333809
33.049304,8.54011237185022,0.0543784177754792
33.051683999999995,8.564747672858646,0.0540558038937994
33.054084,8.58323690200096,0.0537572430456625
33.056472,8.600934735210357,0.0534555688964816
33.058851999999995,8.614348827673197,0.0531770219559275
33.061256,8.620825452337009,0.0529177913819525
33.063644,8.627441846627683,0.0526533135391056
33.066024,8.622976801999636,0.0524246521149407
33.06842399999999,8.615298951811669,0.0522121039187261
