Time,Force,Position
32.156768,0.969232269822512,0.1703013298975972
32.159164000000004,0.9739806454200206,0.1699415260795999
32.161552,0.9818020569505846,0.1691009756879561
32.163932,0.9893439292274282,0.1684133299658483
32.166332,1.0007502333702454,0.1672519982985377
32.168716,1.015229573446118,0.1657188961852836
32.1711,1.027287503894993,0.1646578340884259
32.173496,1.040136830276786,0.1636041266918522
32.175884,1.0525668477779984,0.1627035662961838
32.178264,1.0655087219584083,0.1618745764929093
32.18066,1.0791022224448763,0.1611083733925107
32.183048,1.0944182844240409,0.1602355309812628
32.185428,1.1097343464032057,0.1593053236238703
32.187832,1.1254697172629509,0.1582547310006935
32.19022,1.1424157929361949,0.1570770147704739
32.192604,1.1580113941690795,0.1561512315099686
32.19499999999999,1.1723962905884655,0.1554612699740374
32.197388000000004,1.1877123525676303,0.1546896536897096
32.199772,1.20582191122613,0.1537234205577947
32.202168,1.221417512459015,0.1528777344369267
32.20455199999999,1.2391549840651768,0.1517116543416073
32.206936,1.2559612901115604,0.1505957165004021
32.209332,1.267692459478472,0.1500376784462641
32.230836,1.3184286594102403,0.1499329957158779
32.23322399999999,1.3234093524332264,0.1498847823383071
32.242768,1.34673002568232,0.1497836385894856
32.245183999999995,1.3535730498248624,0.149635193958465
32.247568,1.3586935124747084,0.1495868337197961
32.249948,1.370332134043003,0.1491398504039367
32.252352,1.3850437915443523,0.1484816798506632
32.25474,1.401757549792119,0.1476701615088813
32.25712,1.4258280847194953,0.1462524572247298
32.259524,1.448827684460233,0.1449056768081438
32.261911999999995,1.4727584497607489,0.1435032751545556
32.264292,1.4968289846881246,0.1420572318160333
32.266688,1.5208995196155009,0.140661020791657
32.269076,1.5411056226769038,0.1394514839306266
32.271456,1.5634535961115832,0.1380327346575554
32.27386,1.5817973680534294,0.1369322979489865
32.319236000000004,1.6522712444799073,0.1364676630581166
32.32879199999999,1.6727530950792917,0.1364353843452873
32.331188,1.6809465936621932,0.1362368564978416
32.333575999999994,1.6892798618719551,0.1360256934914793
32.395703999999995,1.7431835413932657,0.1358652071152827
32.39809199999999,1.7497017003117137,0.1356038271142464
32.40047199999999,1.762505700723133,0.134979566404462
32.402868,1.7774515715078294,0.1342058333846477
32.405255999999994,1.7858792833740773,0.1337127946841275
32.407636,1.7972402615465204,0.1330853283984288
32.410032,1.8080421612115227,0.1325659167728456
32.41242,1.827923399048831,0.1315366038336703
32.414816,1.8522281472595536,0.130200828661583
32.41721199999999,1.8746705643507195,0.128901557954554
32.4196,1.898044147001664,0.1275380421385603
32.421980000000005,1.913409326666941,0.1266259699174642
32.42438,1.92826264965302,0.1256813078233548
32.467395999999994,1.891860332596656,0.1251926097327148
32.46978,1.8959117559177328,0.1248716917901103
32.47216,1.8995438703582297,0.1246262406136374
32.47455599999999,1.909042517411116,0.1241454485677977
32.476944,1.918261625210282,0.1237140782206264
32.479327999999995,1.9241281578226723,0.1234682927353262
32.481724,1.9329279567412576,0.1230919663821147
32.484112,1.9415879860329837,0.1227334622399005
32.486492,1.9454524178989565,0.1225652546205225
32.488888,1.9571854831237372,0.1220211697993091
32.491271999999995,1.972782980214492,0.1213126674616342
32.493656,1.9933158443578576,0.120358256498039
32.52711599999999,2.051971691192415,0.1196376097550978
32.529495999999995,2.053322165632774,0.1195364851394617
32.53189999999999,2.058025215259909,0.1192543222653599
32.534288000000004,2.0718076030593493,0.1185958288397821
32.53666799999999,2.081725558992816,0.1180860487582671
32.539064,2.089920953433587,0.1176231622956578
32.54145199999999,2.094251916008385,0.1172925135737232
32.543831999999995,2.0990021874637623,0.1168989749622952
32.546228,2.1096189915315304,0.1163009195628704
32.548616,2.1217260396665183,0.1155814387006437
32.550996,2.132110526308809,0.1148833284445216
32.55339599999999,2.1464992144439337,0.1140540449902461
32.555784,2.172528420005222,0.1127329790193917
32.558164000000005,2.197905999260452,0.1114024373405644
32.560559999999995,2.220582629634965,0.1102432135568336
32.56294799999999,2.241257159263061,0.10917590681664
32.565332,2.2707314878097424,0.1078100792531845
32.567728,2.3027197737820373,0.1064179313457371
32.570116,2.3345682901274727,0.1050251862760119
32.572512,2.3612019001665754,0.1038713347009872
32.57490799999999,2.384203395765183,0.102957814827194
32.577292,2.4050630209905126,0.1021571085779798
32.57967599999999,2.4207077399095094,0.1015582869811543
32.582072,2.4292752214026176,0.1012148370826603
32.584456,2.44184690438856,0.1007491593864175
32.586839999999995,2.4525562562549457,0.1003295876551297
32.589240000000004,2.4652677088677475,0.0998413687752596
32.591624,2.478770557413468,0.0993654878383012
32.594004,2.4913422403994097,0.0989273719034337
32.59640399999999,2.5057762545049087,0.0984604181319694
32.598792,2.5248660964092986,0.097898626560338
32.648972,2.515184249617047,0.0976735047244632
32.651348,2.5173261199903245,0.0976014466891135
32.653752,2.525194753349131,0.0974125407031957
32.65613999999999,2.5282677892821863,0.0973256073517582
32.65852,2.5317601340958227,0.0971857531955918
32.660916,2.540979241894989,0.0969262322476907
32.663304,2.559137918239601,0.0964478001195027
32.665684,2.5783675297708517,0.09594815728606
32.668088,2.5968057453691835,0.0954511409970936
32.670475999999994,2.616734205034734,0.0948732054618238
32.672856,2.638152908767505,0.0942047667787698
32.675259999999994,2.6537050798878856,0.0936673567340049
32.677648000000005,2.6732614525011,0.0930408258400143
32.68002799999999,2.6961704003010896,0.0922927279369216
32.682424,2.7127935066081084,0.0917288728434276
32.684808000000004,2.72182751881004,0.0913051756563723
32.687192,2.734214106198748,0.0907567790249515
32.689592000000005,2.7415255569079835,0.0903356077224666
32.69198,2.7481853813111616,0.089892424602041
32.69436,2.7557763712741177,0.0894383005029969
32.69676,2.767092023476187,0.0889262391069796
32.699144000000004,2.775614178998921,0.088468652719494
32.701528,2.774125830789571,0.0882481296213559
32.703924,2.77943518075239,0.0878901887119376
32.706312,2.7855359266481265,0.0875412300410184
32.708692,2.78777224067789,0.0872668235130397
32.72064399999999,2.746851969591625,0.087156925303616
32.72304,2.7445250036211144,0.0870425717029982
32.725436,2.739264771344409,0.0869820015073944
32.727824,2.734004539067703,0.0869203034912821
32.730208000000005,2.7339592130973287,0.0867340086777535
32.732603999999995,2.740059958993065,0.0864093124421077
32.734988,2.746020935261942,0.0861023741028974
32.73737199999999,2.759850544889626,0.0856520808812434
32.739768,2.7755424856368665,0.0851800921822388
32.742155999999994,2.788021620824191,0.0847914186551836
32.744536,2.7981265682127616,0.0843968880667924
32.746932,2.806508954108635,0.0840078920932556
32.74932,2.8221083470572585,0.0834499171442924
32.7517,2.8318412073934915,0.0830002199330469
32.754099999999994,2.8377096358637512,0.0826126205600809
32.756488000000004,2.8446489995206496,0.0821932801547122
32.75886799999999,2.8555925646703817,0.0816971783163151
32.76127199999999,2.8665361298201137,0.0811968744387695
32.76366,2.880552730902901,0.0806336582945414
32.766040000000004,2.894709101612549,0.0800552458244192
32.768435999999994,2.910076177135694,0.0794454854331789
32.770824000000005,2.9202283463525083,0.0789618728154919
32.773208,2.930100976315601,0.0785098885637006
32.775604,2.937831735905417,0.0781117291376357
32.777992,2.942349689935318,0.0777934589431304
32.780372,2.9424441335918043,0.0775943928315361
32.782768000000004,2.9422590379945697,0.0774266514916246
32.785156,2.937278344971584,0.0773248757246236
32.787536,2.9302955512021813,0.0772577059746846
32.789936,2.927177189298752,0.0771364477915085
32.792320000000004,2.923639518514743,0.0770611008638426
32.794715999999994,2.9254093018356824,0.0769600928012941
32.797112,2.923314653290648,0.0769115489775808
32.799504,2.926155371798226,0.0767874061590806
32.801884,2.9339314573584163,0.0765894664869612
32.80427999999999,2.943569874038163,0.076374848715419
32.80667199999999,2.9510664203446324,0.0762103683354374
32.809051999999994,2.962567168143936,0.0759849524023725
32.811448,2.972345354450543,0.0757663458441638
32.813835999999995,2.985196576690205,0.0755005626327895
32.816216,2.9906910222502576,0.0753739858705411
32.81861599999999,2.995254302250532,0.0752532412477479
32.821004,3.0023787615046644,0.075045554763906
32.823384000000004,3.0085720551990187,0.074843388749847
32.825779999999995,3.018257693707009,0.0745463476599854
32.828168000000005,3.032227072961553,0.0741590456452442
32.83054799999999,3.0455448259100395,0.0737486322647976
32.832948,3.0587228092316647,0.0733506497065454
32.835336,3.072040562180151,0.0729353977221881
32.837716,3.0799110913968275,0.0725511212638725
32.840115999999995,3.0860590591208075,0.0721656727327063
32.84250399999999,3.0856888679263395,0.0718375654795944
32.84488399999999,3.0910454397174014,0.0714505826395213
32.847284,3.088393608522796,0.0711833713855308
32.849667999999994,3.0789440791560216,0.07099953005431
32.852048,3.0696343194161075,0.0708003486869962
32.854448000000005,3.060604098929914,0.0705707946365136
32.856832,3.0457073458313304,0.0704138678446629
32.86162399999999,3.007858214820252,0.0703083767357027
32.864012,2.995615188774143,0.0701415184794725
32.866392000000005,2.987795673101448,0.0698716935537637
32.868796,2.9746214814955603,0.0697082697311763
32.871184,2.968384757688701,0.0694542001897303
32.873564,2.9605180201877634,0.0692796483417123
32.87595999999999,2.9507889515672687,0.0691167906855637
32.878348,2.945203854066468,0.0688874930876411
32.880731999999995,2.940689691752305,0.0686376220667889
32.883128,2.940179730930977,0.068338788340064
32.885516,2.9473986338415963,0.0679696545479201
32.887896,2.956479867871772,0.0675882742210714
32.890292,2.967563202648364,0.067177075076679
32.89268,2.971848839252787,0.0668342522650258
32.895064000000005,2.988426619589432,0.0663217614958293
32.897468,3.0087290621651905,0.0657803986506347
32.899856,3.02768103030059,0.0652899043308984
32.902236,3.046213689555408,0.0648428251586027
32.90463199999999,3.0696817158628384,0.0643418739793885
32.90702,3.0900767062372143,0.0638772950922037
32.909400000000005,3.1166177684777003,0.0633183498613103
32.91180799999999,3.1368729892252154,0.0628749440239527
32.914196000000004,3.1557777355323715,0.06248883579272
32.91657599999999,3.177755517772583,0.0620553108152108
32.918972,3.187720695534293,0.0617626500991233
32.921356,3.1931698151239725,0.0614768566515254
32.92373599999999,3.1963372947135134,0.0612424888947061
32.926136,3.1930791631832243,0.0611236696776363
32.92851999999999,3.188889866093156,0.0610091220864763
32.935683999999995,3.1590472422098763,0.0609761909254406
32.938064,3.154298866612367,0.0609179832730214
32.945244,3.1268304305278414,0.0608954507735349
32.947644,3.116495061571664,0.0608565748794365
32.95003199999999,3.105647835936287,0.0607802807087409
32.952411999999995,3.093729675114272,0.0607196424284743
32.954808,3.087957586158368,0.0605861088124992
32.957196,3.0781812957096304,0.0604915471584479
32.959576,3.065611508581557,0.0604069390346806
32.961972,3.050108455147289,0.0603453141694185
32.96436,3.0375386680192165,0.0602589552172748
32.96674,3.035119154250088,0.0600583793841622
32.96914,3.036424302720073,0.0598421746141155
32.971524,3.042944357496391,0.0595560756172361
32.973904000000005,3.0529567570863443,0.0591887611230621
32.976304,3.0656228837287727,0.0588272250387605
32.97868799999999,3.0794997151847,0.058430864418701
32.981084,3.088441179588015,0.0580777224797113
32.983484000000004,3.0937977513790766,0.0577265792017685
32.985872,3.0959415176102234,0.0574303258774986
