Time,Force,Position
31.935412,5.297952182857259,0.1529812443129514
31.937792,5.335848535696582,0.1523464333899873
31.940192,5.362060940997237,0.1517904209763964
31.94258,5.372585197266387,0.1514115877824852
31.94496,5.36881710491477,0.1512316300700886
31.947356000000003,5.361139254726805,0.1510357655427615
31.949748,5.350156051180305,0.1508796272364992
31.952128,5.3406158698727815,0.1507189422460439
31.954524000000003,5.334660581177511,0.150499611688546
31.956916,5.33373320733347,0.1502145125550564
31.959296,5.330104884608709,0.1500254357096321
31.961692000000003,5.329642145615622,0.149807430103924
31.964084,5.335837335167843,0.149456390918539
31.966464,5.34468625177254,0.1490598485388211
31.968864,5.351765385056297,0.1487438609962484
31.971252,5.362569180579167,0.1483560052643758
31.973632,5.374815998341013,0.1479674105752396
31.976032,5.387714442408917,0.1475791825768243
31.97842,5.397911937596103,0.1472904609768098
31.980804000000003,5.4099717639028455,0.146970093214306
31.9832,5.420820885396089,0.1466901802928514
31.985588,5.43232163319539,0.146417011866227
31.987968,5.446615877674027,0.1460960733292066
31.990368,5.457278007712169,0.1458828326062893
31.992756,5.471245491108844,0.1456314079445057
31.995140000000003,5.487866701557993,0.1453425340250229
31.997536,5.501414876074088,0.1451226966517785
31.999924,5.512588862791429,0.1449238203371557
32.002308,5.5191070217098765,0.1448085301766641
32.004704000000004,5.533773353240853,0.1445182518857063
32.007092,5.550581555145107,0.1441761343369456
32.00947599999999,5.567157439623885,0.1438048256402876
32.011872,5.581079597050185,0.1434747660636459
32.01425999999999,5.597423164103484,0.1430775062380464
32.016639999999995,5.614465579291083,0.1426325357581363
32.019040000000004,5.634301491158016,0.1421483575800439
32.021428,5.652275071905396,0.1416981033258838
32.023808,5.673321688585829,0.1411856817064508
32.026208,5.694647844519982,0.1406543756880796
32.02859599999999,5.710759094147804,0.1402352182934308
32.03098,5.726218717469567,0.1398141070273401
32.033379999999994,5.738745074485135,0.1394487479386358
32.035768000000004,5.746847921127288,0.1391899644456387
32.038152,5.757092638142718,0.1388788587302027
32.040548,5.768687829598509,0.1385270292238362
32.042936,5.780794877733495,0.1381930092035898
32.045320000000004,5.797977062547955,0.1377585540134124
32.047715999999994,5.814600168854973,0.1373591850205555
32.050104000000005,5.833737232587607,0.1369328025636076
32.052488,5.841653087774658,0.136737189881017
32.054884,5.8505001085214845,0.1365289596308726
32.057276,5.859998755574368,0.136327156379073
32.059656000000004,5.872290899306591,0.1360850135807471
32.062051999999994,5.882301403038676,0.1359000759617433
32.064440000000005,5.89161305863646,0.13576054024454
32.066824,5.895197951248712,0.135714157234646
32.06922,5.899574239793883,0.1356631874855897
32.071608,5.902739823525556,0.1356443694048829
32.073992000000004,5.906836572817006,0.13561221164272
32.076392,5.916008458787929,0.135485061669567
32.078776000000005,5.925040575131991,0.1353673150285237
32.08116,5.935283396289554,0.1352181109879526
32.083556,5.952371137447527,0.1349098898512234
32.085944,5.972531914538559,0.1345452989930186
32.088328000000004,5.990038964577114,0.1342146302840949
32.090723999999994,6.004380430883997,0.1339039242700524
32.093112000000005,6.013786530138267,0.1336773306546042
32.09549199999999,6.025753808646396,0.1333811838646232
32.097888,6.03399642491541,0.1331357150183409
32.100275999999994,6.047733486744479,0.1327692105194753
32.10266,6.059608217453989,0.1324313598395807
32.105056000000005,6.066827120364608,0.1321590602222502
32.107444,6.070461130662973,0.1319317771655645
32.10982799999999,6.075166076147977,0.1316833407397443
32.112228,6.08150103532706,0.1313790893085915
32.114616,6.087975764133002,0.1310638019850169
32.117000000000004,6.094869801819527,0.1307241086852563
32.119395999999995,6.100041278013356,0.130401703800868
32.121784000000005,6.105352523834043,0.1300722857658468
32.12416399999999,6.108941208162035,0.1297612364732707
32.126564,6.111319187676528,0.1294796068274033
32.128952,6.112626232004382,0.1292191143708849
32.131336000000005,6.107367895585545,0.1290951089217748
32.133736,6.100247228047148,0.1289958377456147
32.136123999999995,6.094429813120869,0.1289058728746136
32.138508,6.086330758194452,0.1288663155020644
32.140908,6.077580076961979,0.1288223655702542
32.143292,6.066687525356226,0.1288203455227378
32.145675999999995,6.062360354497168,0.1286823787572824
32.148076,6.060966449944302,0.1284998187390892
32.150464,6.058129523152463,0.1283155937441091
32.152848000000006,6.059157028226597,0.1280736334964839
32.155244,6.058461971808034,0.1278463724626701
32.15763199999999,6.054182022777219,0.1276590786427923
32.160016,6.048831138559765,0.1274926396699425
32.162412,6.049626326208422,0.1272202181452221
32.1648,6.047348477924023,0.1270006119180757
32.167184000000006,6.044558772960427,0.1267665661393667
32.16958,6.039766967250413,0.126565002230669
32.171972,6.0329730607939815,0.1263954521891717
32.174356,6.027809168031631,0.1261708241019301
32.17675199999999,6.02371621045592,0.1259253686660386
32.179140000000004,6.021113496947425,0.1256325535005873
32.181524,6.020652653812209,0.1252998930153908
32.183924000000005,6.015815522131821,0.1250083782148277
32.186312,6.012049325638073,0.1246942566903403
32.1887,6.014801288062773,0.1242963135323644
32.191100000000006,6.022628387166945,0.1238159773187843
32.193488,6.025892206270842,0.123436687815426
32.195876,6.022218557575711,0.1231651550080227
32.198272,6.0197083918658345,0.1229123008037873
32.200664,6.017198226155959,0.1226602200229645
32.203052,6.017062248244836,0.1223981122079369
32.205448000000004,6.021582098132606,0.1220783622327674
32.207840000000004,6.026241717647236,0.121750823990637
32.210228,6.0267573660421725,0.1214964440109984
32.212636,6.029275115183527,0.1212106788742671
32.215024,6.035237987310271,0.1208978689106925
32.217416,6.042411564250516,0.1205572421367773
32.219812000000005,6.053729112310455,0.120148357687437
32.222204000000005,6.064767121116674,0.1197576537727005
32.224599999999995,6.077947000296169,0.1193318356029616
32.227000000000004,6.090987109848804,0.118913941214152
32.229392000000004,6.098812313095107,0.1185831175128229
32.231787999999995,6.11143311376716,0.1181886748540641
32.234188,6.128058115932048,0.1177356971679832
32.236580000000004,6.140306829551765,0.1173238419498908
32.238975999999994,6.143615974626036,0.1170396702773143
32.241367999999994,6.148415363767525,0.1167119950250601
32.243752,6.158150119961628,0.1163155918372729
32.246148000000005,6.168723493916892,0.1158706537339142
32.248540000000006,6.175572205633042,0.1154665416493116
32.250924,6.182840226229774,0.11503826924753
32.25332,6.18745451977403,0.1146342409149032
32.255728000000005,6.190718338877927,0.1142648170684268
32.258112,6.190117726115851,0.1139427134110245
32.260508,6.190727818167273,0.1135948865440325
32.262908,6.190406744658917,0.1132590358437379
32.265292,6.189945901523701,0.1129316831859343
32.267696,6.186412022455429,0.1126508955071273
32.270092000000005,6.181946977827379,0.1123796010696788
32.272476,6.172127257266137,0.1121973830464057
32.27488,6.164169867824452,0.1119953757788744
32.277272,6.162358550248877,0.1117028572476751
32.279664,6.159755836740384,0.1114124855090963
32.28206,6.152217756179279,0.111185595570487
32.284448,6.145191532297372,0.1109728709186308
32.286844,6.141098574721659,0.1107214311968699
32.28923999999999,6.137797013078865,0.1104688754501388
32.291624,6.130631019570098,0.1102623750327629
32.29402,6.122766177927027,0.110095932334568
32.296415999999994,6.118486228896211,0.1098994254333906
32.2988,6.112855805425037,0.1097362953069032
32.301199999999994,6.110950044192975,0.109536210808495
32.3036,6.112396858147691,0.1092769338768301
32.305988,6.118359730274436,0.1089782438166442
32.308368,6.122832358333962,0.1087218990793349
32.310772,6.124092180833575,0.108516833875014
32.31316,6.123210132959909,0.1083457357324424
32.31554,6.121117380272744,0.1081993684408171
32.317936,6.11888485795872,0.1080607306886013
32.320324,6.121727472324167,0.1078511425131813
32.3227,6.125501252249393,0.1076338279445789
32.325104,6.126201996241563,0.1074611737489052
32.32749199999999,6.124760869860456,0.1073221211947016
32.329871999999995,6.1290465064648805,0.1071214948164666
32.332268,6.133332143069302,0.1069210707696681
32.334652000000006,6.143624081912977,0.1066453027126494
32.337036,6.151634380756513,0.1064114077448185
32.339432,6.163229572212304,0.1061510345753281
32.341815999999994,6.178177338854868,0.1058359143087231
32.344212,6.192613248818235,0.1055077658936764
32.346608,6.209470568408602,0.1051324514523687
32.348996,6.220321585759717,0.104831883522768
32.351376,6.228239336804636,0.1045659120590701
32.353776,6.23471406561058,0.1042936098076977
32.35616399999999,6.239606002550687,0.104021562619617
32.358543999999995,6.249852615423988,0.1036706352380874
32.36094,6.26545390423048,0.1032421808761183
32.363328,6.284267998596888,0.1027662096246414
32.365708,6.304153028149934,0.1022744564546933
32.368112,6.320173625837009,0.1018237450348822
32.37049999999999,6.332469561284968,0.1014062088116688
32.372879999999995,6.344625727106068,0.1009970988076726
32.375276,6.359715159233363,0.1005564303242613
32.377664,6.3748045913606575,0.1001218783856944
32.380044,6.39203589386123,0.0996595990457598
32.38244399999999,6.406333930055606,0.0992336665999075
32.384828,6.421842671063482,0.0987850339377185
32.387224,6.434837454645743,0.0983455566993532
32.389619999999994,6.441406627108173,0.0979953647364044
32.392008000000004,6.447276951436302,0.0976828411424409
32.394392,6.450865635764295,0.0974077376773721
32.396788,6.459529456771758,0.0970741151224635
32.399176,6.467494429644921,0.096776760287182
32.401556,6.477042194383919,0.0964805028938325
32.40396,6.489243686175392,0.0961701029859091
32.406347999999994,6.495438875727616,0.0959257759255381
32.408728,6.497210554906425,0.0957478795654248
32.411124,6.499773630018152,0.0955715346328763
32.413512,6.504199036249434,0.0953824007079858
32.415892,6.512768413600414,0.0951448754828594
32.418288000000004,6.524131287630725,0.0948873232270315
32.420676,6.536704866474535,0.0946098002352302
32.423052,6.549278445318347,0.0943341105690484
32.42545199999999,6.558267131549906,0.094079186867845
32.42784,6.564182781848407,0.0938588750667296
32.430220000000006,6.565954461027217,0.0936853132383978
32.432616,6.566794974646247,0.0935180946688897
32.435004000000006,6.568287114571335,0.0933587909895423
32.4374,6.572340433750281,0.0931496878265846
32.439796,6.579886097742863,0.0928870256985243
32.442184,6.592367128788057,0.0925807947131292
32.444564,6.601635354273336,0.0923155854080784
32.446960000000004,6.612533593452694,0.0920083206542601
32.449348,6.621709271139356,0.0917068207025843
32.451728,6.632095653639516,0.0913873060587035
32.45412399999999,6.645415302445872,0.0910413520720033
32.456512000000004,6.6559414545728925,0.0907108498427126
32.458892000000006,6.6613924700204405,0.0904322582680131
32.461292,6.664981154348431,0.0901671962024368
32.46368,6.664425867556729,0.0899479867768048
32.46606,6.663730811138166,0.0897365656688772
32.468456,6.65782084841327,0.0895826071551785
32.470844,6.650979720128597,0.0894346078864722
32.473240000000004,6.644929987776842,0.0892874355393177
32.475635999999994,6.6382286291190296,0.0891313826320421
32.478024000000005,6.634740076021132,0.088935701699267
32.48040399999999,6.6360471203489855,0.088704730833285
32.4828,6.635491833557285,0.0884848273227089
32.485187999999994,6.637869813071778,0.0882413245736232
32.487568,6.635312425533658,0.0880408309054556
32.489964,6.629030375756426,0.0878634622221642
32.492352,6.62638044041969,0.0876283092116026
32.494732,6.622799339523176,0.0873983509180192
32.497136,6.620289173813299,0.0871559093444335
32.499520000000004,6.614845741797227,0.0869365862179707
32.501904,6.611404410527573,0.086700520710184
32.5043,6.6151800863106685,0.0863939464075796
32.50668399999999,6.624729746907536,0.0860072244139641
32.509068,6.633348241944628,0.0856256888577772
32.511472,6.642758132914635,0.0852442925685656
32.513859999999994,6.6495142968321685,0.0848712331623431
32.51624,6.660414431869396,0.0844546936508336
32.518636,6.67331666765304,0.0840234585582465
32.521024,6.685147968250045,0.0836041332423768
32.523408,6.7016350966459415,0.0831618397448126
32.525803999999994,6.7189136209747575,0.0827235027307936
32.528188,6.73153631750468,0.0823130015391141
32.53057199999999,6.745229949221242,0.0818895380300484
32.532968,6.756921480191386,0.0814852130922344
32.53535599999999,6.765400205601616,0.081111448706981
32.53774,6.7718768302654295,0.080753706289782
32.540136000000004,6.774861110115605,0.0804455445544433
32.542524,6.778357246644981,0.0801530036106614
32.544920000000005,6.783575944667051,0.0798594393383533
32.547315999999995,6.790796743435539,0.0795506374923078
32.549704000000006,6.794013340711193,0.0792738002917831
32.552088,6.794948297986711,0.0790279722213593
32.554484,6.795184407127927,0.0788171710397356
32.556872,6.79621191220206,0.0786086464300751
32.559252,6.799381287649472,0.0783786257402276
32.561648000000005,6.802550663096882,0.0781475781128245
32.564036,6.806930743357793,0.0778999709559308
32.566416000000004,6.808377557312508,0.077671958315423
32.568811999999994,6.811035076080722,0.0774266437583862
32.571200000000005,6.808617458169462,0.0772215669220964
32.57357999999999,6.80233540839223,0.0770384949645128
32.575984000000005,6.793631948988001,0.076889016239977
32.578372,6.786790820703327,0.076731410632176
32.580752000000004,6.779809922791793,0.076580237080655
32.583147999999994,6.7817685934257055,0.0763672985916649
32.585536000000005,6.782516559246119,0.0761701992995068
32.58791599999999,6.785126856186088,0.0759653631836821
32.590312,6.78722529644686,0.0757443882326822
32.592699999999994,6.788532340774713,0.075521902185374
32.595096,6.785555644356013,0.0753406396922929
32.597492,6.786583149430148,0.0751310940236361
32.599875999999995,6.785748323384724,0.0749292351671876
32.60226,6.783982331779523,0.0747319909039278
32.604656000000006,6.782356109801183,0.0745282690683224
32.607044,6.7819405926363405,0.0743089529884662
32.609427999999994,6.788183004016808,0.0740599188899729
32.611824,6.79628774651683,0.0738064715482311
32.614208000000005,6.803321553830215,0.0735620553547883
32.616592,6.807282325210544,0.0733399617513812
32.618988,6.812453801404372,0.0731007757307525
32.621376,6.825493910957006,0.0728170252200742
32.623756,6.840536121256058,0.0725181015458489
32.626155999999995,6.853436461181833,0.072239207215
32.62854,6.866057261853888,0.071973602800437
32.63092399999999,6.875744796219746,0.0717270218984044
32.63332,6.891159093571135,0.071454878979391
32.635707999999994,6.905502455735886,0.0711929660453491
32.638104,6.920357674579835,0.0709471919464823
32.6405,6.932139857490728,0.0707240028782428
32.642888,6.944341349282201,0.0704794884838657
32.645268,6.956682610700535,0.0702312673474661
32.647664000000006,6.968744332865149,0.0699953998300199
32.650052,6.976801853536928,0.0697842783391685
32.652432000000005,6.9849991438355685,0.0695673454299572
32.654824000000005,6.991054563760932,0.0693704495192826
32.657212,6.990312285514126,0.0692077584069193
32.659608000000006,6.984355100960988,0.0690848808728821
32.662008,6.979329081967628,0.0689586660331912
32.66439199999999,6.982031926706215,0.0687976079014253
32.666771999999995,6.986597102564359,0.0686312296369387
32.669172,6.986226911369891,0.0684923694152694
32.671555999999995,6.98841789942928,0.0683172521963072
32.67394,6.99116796599611,0.0681169571418953
32.676336000000006,6.991264305510464,0.0679175308124561
32.678724,6.988706917972347,0.0677195646559367
32.681107999999995,6.979631371515779,0.0675394119387436
32.683504,6.972046069126431,0.067331820147454
32.685892,6.969955212297136,0.0670760227214053
32.688272,6.972799722520451,0.0667963116712001
32.690672000000006,6.981370995729297,0.0664966048745776
32.69306,6.982725261885395,0.0662434145133307
32.695440000000005,6.985430002481852,0.0659692337053212
32.69784,6.993070110130921,0.0656708154211976
32.700228,7.0005704481531295,0.0653791859061283
32.702608,7.006999850988699,0.065095951128294
32.705004,7.012498088264491,0.0648132379891539
32.707392,7.019207030353781,0.0645148227964841
32.709772,7.027126677256568,0.0642017699302294
32.712171999999995,7.027596999681132,0.0639079487731125
32.714560000000006,7.026204990986138,0.0636186860047799
32.716944,7.022810881544727,0.0633392522133835
32.719336,7.019137232849595,0.0630730392520561
32.721723999999995,7.021050577513133,0.0627965450161427
32.724108,7.030832555535479,0.0624875572496589
32.726504000000006,7.044199426170078,0.0621777899684816
32.728892,7.0657144694172045,0.0618243168265937
32.731288000000006,7.084296246358134,0.0614835041367583
32.733688,7.096592181806094,0.0611863731449177
32.73607199999999,7.105023685388081,0.0609034302318111
32.738456,7.11159285785051,0.0606259347170693
32.740852000000004,7.123376936619272,0.0603150659154022
32.743236,7.1330191450147575,0.0600190042590887
32.74562,7.139728087104047,0.059734303345613
32.74801599999999,7.147647734006836,0.0594373439017704
32.75040799999999,7.156778085723124,0.0591271975874478
32.752787999999995,7.172054509305522,0.0587857794410932
32.755191999999994,7.1882620984477,0.0584432635362791
32.757580000000004,7.2083341194558495,0.0580928567296011
32.75995999999999,7.228917997143197,0.0577570274050371
32.762356,7.252295371509881,0.0574187304404484
32.76474,7.277814616249841,0.0570662047257258
32.767120000000006,7.300121055429885,0.0567353914516778
32.76952,7.313487926064485,0.0564402937238136
32.771908,7.320057098526914,0.0561669870843014
32.774288,7.322901608750231,0.0558985077606373
32.776684,7.319180738226856,0.0556778671198435
32.779072,7.314249162889983,0.0554685330462273
32.781452,7.311599227553246,0.0552398230302928
32.783848000000006,7.30894929221651,0.055010622593003
32.786236,7.306159587252914,0.0547878958972122
32.788619999999995,7.306023609341792,0.0545692098099928
32.791016,7.310822998483281,0.0543352406072315
32.793403999999995,7.315762157251632,0.0540951738081049
32.795784,7.318419676019845,0.0538743059017553
32.798184000000006,7.32014602922828,0.0536542878455236
32.800572,7.314375836130245,0.0534793161108325
32.80296799999999,7.307674477472433,0.0533047811597482
32.805364,7.297108686948645,0.053139218141777
32.807751999999994,7.290826637171411,0.0529483451246097
32.810136,7.280959694781927,0.0527540610697017
32.812532000000004,7.272815313885138,0.0525646161247553
32.814916,7.266533264107904,0.0523736228389641
32.8173,7.268119847689479,0.0521615115260423
32.81969599999999,7.272639697577249,0.0519422875836823
32.822087999999994,7.279021878584575,0.0517218756488159
32.824468,7.289967339592176,0.0514662718779404
32.826864,7.30570839802553,0.0512029789621011
32.829252,7.318096881272107,0.0509637536841913
32.831632,7.329134890078325,0.0507410828958301
32.83403199999999,7.339241733324766,0.0505195692988526
32.836420000000004,7.345623914332092,0.0503004076964803
32.838800000000006,7.348933059406363,0.0500944832296658
32.8412,7.351031499667135,0.0498993769224048
32.843588,7.352850400674187,0.04971499919906
32.845968,7.35331882724088,0.0495472051926249
32.848364000000004,7.3582107641809875,0.0493492914867181
32.850752,7.363894097054014,0.0491567707643279
32.853132,7.365293689180485,0.0489870282834713
32.855532,7.363200936493322,0.0488465587733536
32.85791999999999,7.36483284604527,0.0487055382416198
32.860299999999995,7.362600323731245,0.0485708117922175
32.862696,7.361718275857579,0.0484192754905706
32.865084,7.352967594625106,0.0482853734799149
32.867468,7.340864338205857,0.0481739453232729
