Time,Force,Position
4.943508,5.087572512262312,0.1627859695919786
4.9459040000000005,5.120393728422161,0.1622388733257478
4.948288,5.146606133722814,0.1616431819542061
4.950684000000001,5.171330190814118,0.1609748960255622
4.95308,5.1957747086517,0.160342250845997
4.955468,5.216587112048787,0.1598370481326133
4.957848,5.233627631378517,0.159463452116101
4.9602520000000005,5.256534683320638,0.1589470952140018
4.96264,5.279861044143339,0.1583965693330614
4.965020000000001,5.300206916831602,0.1579739747985638
4.967416,5.31543043101215,0.1577422382230251
4.969804,5.326882061125341,0.1576418962736991
4.972184,5.344899071985223,0.1573502193826967
4.97458,5.365477262098962,0.1569692610252323
4.976967999999999,5.3820512507198695,0.156695569339934
4.979352,5.402117584154412,0.1563204878988887
4.981744000000001,5.425396723148869,0.1558579131642218
4.984132000000001,5.450398423636023,0.1553703156723252
4.986516,5.479544095242871,0.1547754637888095
4.988911999999999,5.51469606908897,0.1540529934572805
4.991300000000001,5.540768704762764,0.1535537232492702
4.993696,5.567772505996334,0.1530521659546968
4.996092000000001,5.595707472789684,0.1525408348322657
4.998480000000001,5.614702871037588,0.1522237177390523
5.000864,5.6313240814867385,0.1519320142258399
5.003259999999999,5.650459249361503,0.151608860634733
5.005648000000001,5.677323280968213,0.1511347169335229
5.008028,5.702604520709089,0.1506798177481836
5.010424,5.726814825263325,0.1502491831183169
5.012812,5.756799114631334,0.1496658663632788
5.015196,5.7889252743726205,0.1490302460164466
5.0175920000000005,5.829059837099575,0.1482289637309363
5.01998,5.862908558333558,0.1475761079769173
5.022360000000001,5.89238099102237,0.1469888044469772
5.024756,5.920782488524543,0.1464304337435443
5.027144,5.945831410839939,0.1459661466303642
5.029527999999999,5.973673829834672,0.1454644066553538
5.031928000000001,6.001795788083126,0.1449495265672362
5.0343160000000005,6.027543558532825,0.1444560128004693
5.036695999999999,6.048216192303051,0.1440739239051132
5.039092,6.076385372379747,0.1435301043129313
5.04148,6.099758955030692,0.1430747118320678
5.043863999999999,6.120618580256022,0.1426484761343579
5.04626,6.147903816601183,0.1420813646678455
5.048648,6.174257887386564,0.1415301091841818
5.0510280000000005,6.20037964074647,0.1409529386329373
5.053424,6.222264875188065,0.1404291317270679
5.055812,6.2441501096296586,0.1399078671101974
5.0582080000000005,6.26966745851175,0.1392965440695472
5.060608,6.285034534034896,0.1388741157335915
5.062996,6.3012402273192025,0.1384048153979124
5.0653760000000005,6.313209401685199,0.1379834911688942
5.139448,5.792197200763459,0.1375027363181226
5.141836,5.783166980277266,0.137484877973653
5.144216,5.776930256470407,0.1374250032778831
5.148996,5.763570969267286,0.1374087904684443
5.151392,5.761942851431075,0.1373284398106873
5.1537880000000005,5.760734042475446,0.1372202155423987
5.156172,5.761759651691711,0.1371067103813981
5.158552,5.768512023893505,0.136899201869955
5.160947999999999,5.778989058334414,0.1366325357139452
5.1633320000000005,5.787883300909485,0.1363760330334766
5.165728,5.799431270537033,0.1360883497202792
5.168124000000001,5.80948899609736,0.1358524719334339
5.170512,5.820617656844326,0.1355947960489694
5.172891999999999,5.833888187964569,0.1352931448468489
5.175292000000001,5.851442459831366,0.1348998427926064
5.1776800000000005,5.867134400578606,0.1345393351219279
5.180059999999999,5.889064960990574,0.1341043130035707
5.182456,5.91192668696232,0.1336587779117627
5.184844,5.933857247374288,0.1332364319490439
5.187227999999999,5.951923375920283,0.1328735009243729
5.189628000000001,5.973062540399333,0.1324577577469352
5.192016000000001,5.991268438572187,0.13209164150711
5.194395999999999,6.0128269119318185,0.1316540076579801
5.1968,6.036155168612389,0.1311510226476363
5.199184000000001,6.061205986785655,0.1306377863839586
5.201563999999999,6.092123337571312,0.1300367811113599
5.20396,6.119875104625297,0.1294554564362314
5.206348,6.148558037239061,0.1288711649996096
5.208728000000001,6.179382840226101,0.1282498223200272
5.211124,6.212069974332697,0.1276054973991602
5.213507999999999,6.242243151013679,0.1269861169808905
5.215904,6.275117276575379,0.1262984134142959
5.2182960000000005,6.308922567696859,0.1256063117760968
5.220684,6.342867628445196,0.1249155119594361
5.223068,6.376161062887479,0.124228063640983
5.2254640000000006,6.409174958076039,0.1235610944556045
5.227848,6.436601859905929,0.1229644787527875
5.230231999999999,6.46360945285524,0.1223950110116955
5.232635999999999,6.482608642818882,0.1219428231215849
5.2350200000000005,6.506403430208276,0.1214270654265819
5.237399999999999,6.528196116851253,0.1209467174126674
5.239804,6.551851134613788,0.1204455416590268
5.242191999999999,6.5752266131226005,0.1199661752550559
5.244572,6.600836509803309,0.1194914905709436
5.246976,6.623792679431541,0.1190444849816202
5.249364,6.643675813126719,0.1186496550721427
5.251744,6.665141738687733,0.1182513298243223
5.25414,6.685676498688969,0.1178685897192197
5.256527999999999,6.704488697197507,0.1175010212813424
5.258908,6.723440665332906,0.1171283401058183
5.261303999999999,6.741321698281666,0.116772934589674
5.263692000000001,6.757432947909488,0.1164753149073453
5.266071999999999,6.769539996044474,0.1162310734983227
5.268464,6.777363303432908,0.1160548928623068
5.270852,6.78448776268704,0.1159169716102829
5.273244,6.787747790075199,0.115823500390302
5.275648,6.793521774888971,0.1157164798350762
5.278032,6.7965022630234095,0.1156375375575501
5.280412,6.807491154143516,0.1154518135440312
5.282816,6.8166177141440665,0.1152861873533529
5.313864000000001,6.778353065968144,0.1152600008858002
5.316243999999999,6.779424001154783,0.1152436097363989
5.31864,6.780634705968281,0.115219962976674
5.321028,6.786920547461253,0.1151291494991748
5.323423999999999,6.794696633021443,0.1150010517978782
5.32582,6.808618790447744,0.1147914518013264
5.328204,6.820399077500769,0.114615984749087
5.3305880000000005,6.837254501233264,0.1143788448221043
5.332992000000001,6.858114126458595,0.1140935713597063
5.335376,6.876692111683787,0.1138470909906682
5.337756000000001,6.897132428028536,0.1135839988421745
5.340159999999999,6.92171671549298,0.113266258895381
5.342548000000001,6.947931016651502,0.1129039235195591
5.344928,6.980291389676135,0.1124625481768051
5.347324,7.0067852300883775,0.1120889644505615
5.349712,7.037143502366594,0.1116748168381641
5.352096,7.069783414644948,0.1112248341814715
5.354495999999999,7.1011200743111855,0.1107641832253908
5.35688,7.1298030069249485,0.1103254953744777
5.359260000000001,7.157974082859513,0.1098715996191809
5.361663999999999,7.188426798794216,0.1093850500377291
5.364051999999999,7.217156953236223,0.1089136127078245
5.366427999999999,7.244304315812393,0.1084451502438144
5.368824,7.2686581817092275,0.1080029789049575
5.371207999999999,7.291941112419423,0.1075796626730846
5.373588,7.308566114584312,0.1072199830028999
5.37598,7.324679260070002,0.1068488825262778
5.378364,7.332923772196885,0.106561536350597
5.38076,7.339445722831072,0.1062840579207847
5.383164000000001,7.34624721271898,0.1059921910170186
5.385548,7.35132614111419,0.1057089850561677
5.3879280000000005,7.355473903949623,0.1054350394109699
5.390319999999999,7.361623767531472,0.105141213905593
5.392708000000001,7.36283826406071,0.1048978195564428
5.395099999999999,7.364472069470528,0.1046332406877591
5.397504,7.361729586335174,0.1043915218895569
5.399892,7.352329174654512,0.104206749893959
5.402267999999999,7.345862029280046,0.1039934829898974
5.404664,7.338603487972661,0.1037804039992832
5.407052,7.336420083344749,0.1035119805145966
5.409432000000001,7.331582951664362,0.1032590111052205
5.411828,7.323533014424059,0.1030464463347855
5.414211999999999,7.315483077183756,0.1028333659677122
5.416592,7.309435240689869,0.1025997308618758
5.418996,7.297660641210453,0.102413355538434
5.421384,7.286677437663956,0.1022258168850296
5.423764,7.271829802251483,0.1020721875915051
5.4261680000000005,7.257773562771931,0.1019178373539829
5.428552,7.239573352172682,0.1018118718232732
5.430932,7.222723616013794,0.1016777242230234
5.433324000000001,7.207875980601323,0.1015220206736848
5.4357120000000005,7.189815539628936,0.1014073935188227
5.438103999999999,7.170404624216189,0.1013190851221227
5.440508,7.154066744736499,0.101195964468315
5.442895999999999,7.13651816044331,0.1010928255622931
5.445271999999999,7.122694238389234,0.1009610961325917
5.447668,7.117670115253744,0.100746284088835
5.450052,7.109433186558338,0.1005724427904243
5.452448,7.099845783422572,0.1004251961156453
5.454852000000001,7.08797674028667,0.1003115015907159
5.457236,7.074757222710408,0.1002241414741691
5.4596160000000005,7.064098884388004,0.1000893408683454
5.462020000000001,7.05451148125224,0.0999407408861282
5.464404,7.040780106996781,0.0998385167051338
5.4667840000000005,7.036779697219686,0.0996496211168866
5.469188000000001,7.039716755241619,0.0993958364344941
5.471572,7.05024290736864,0.0990840955935567
5.473952000000001,7.063981865055577,0.0987329849285661
5.476355999999999,7.081725024235346,0.0983405022495858
5.47874,7.101330514534672,0.097938475975699
5.481120000000001,7.117862968900943,0.0975692487933993
5.483523999999999,7.134674962520934,0.0971845780944572
5.485908,7.147902063528671,0.0968182992785794
5.488288000000001,7.159127063789993,0.0964724242339702
5.490684,7.175007891850206,0.0960945000851216
5.493067999999999,7.188607079910282,0.0957499785341761
5.495448,7.197131131290885,0.0954592139863515
5.497852,7.207797053044765,0.0951433502480696
5.500235999999999,7.223538111478119,0.0947778596469985
5.50262,7.238348004351693,0.0944199397693564
5.505016,7.252226731665489,0.0940667898131718
5.507403999999999,7.263404510098567,0.0937652619895962
5.509784,7.274442518904785,0.0934711554077591
5.512188,7.290555664390476,0.0931269222530037
5.514571999999999,7.29880017651736,0.0928524657021485
5.516956,7.298105120098796,0.0926583591233453
5.519356,7.292614466254483,0.092500708092501
5.521744,7.285121711663752,0.0923609899798753
5.5241240000000005,7.280562223379217,0.09219795608695
5.526528000000001,7.274652260654321,0.0920602457575566
5.528912,7.271955103489342,0.0918863669579114
5.531288,7.273122378190336,0.0916841061383906
5.533683999999999,7.277222919197525,0.0914583544285021
5.536068,7.28332556095113,0.0912156661169498
5.538463999999999,7.289707741958457,0.0909620513614998
5.540868,7.297300627779282,0.0906901678977207
5.543252000000001,7.301820477667051,0.0904454038943464
5.545632,7.305129622741322,0.0902195045241313
5.548036,7.303503400762981,0.0900335987829676
5.550424,7.3018771787846415,0.0898477782340586
5.5528,7.303044453485635,0.0896459176632751
5.555208,7.307424533746544,0.0894088262098554
5.557592,7.311664844380594,0.0891783565549983
5.559972,7.314694450201146,0.088967033345071
5.562376,7.3213089486339475,0.0887407143227177
5.56476,7.332858814119364,0.0884746682370999
5.56714,7.345060305910837,0.0882160296892015
5.5695440000000005,7.358844589568148,0.0879600208146058
5.571932,7.367553736545985,0.0877498798625307
5.574312000000001,7.374400552404269,0.087550271204409
5.576715999999999,7.381619455314888,0.087372134789168
5.579103999999999,7.386696487852229,0.0872175264579157
5.581484,7.392145607441908,0.0870834040404352
5.583880000000001,7.394242151844812,0.086989251939377
5.5862680000000005,7.394057056247577,0.0869240709919488
5.588644,7.392801025463704,0.0868700028723876
5.591048000000001,7.39969316729236,0.0867456384403823
5.5934360000000005,7.405654143561236,0.0866261146225986
5.595815999999999,7.413477450949669,0.0864965841398763
5.598212,7.42195238464416,0.0863750946289609
5.6006,7.43042731833865,0.0862542084644207
5.6029800000000005,7.440624813525838,0.0861311249232174
5.605384000000001,7.450682539086166,0.0860143345763387
5.607768,7.461811199833132,0.0858876551972765
5.610148000000001,7.473219399833818,0.0857493922088231
5.612544,7.4844878302076445,0.0856180728100131
5.614932,7.497898130954748,0.0854661719146686
5.617312,7.510517035768932,0.0853131260709027
5.619707999999999,7.528211077262589,0.0851200603278908
5.622092,7.545765349129387,0.0849325653329985
5.624472000000001,7.561597059503487,0.0847488165689604
5.626875999999999,7.578359935437367,0.0845612517000688
5.62926,7.592748623572493,0.0843687378405042
5.631639999999999,7.610350117267532,0.0841444976466071
5.634048,7.628370919843152,0.0839026436703291
5.636431999999999,7.649185219098109,0.0836483252041551
5.638812,7.666786712793149,0.083428119820986
5.641216,7.683317271301552,0.0832173367667993
5.643604,7.700918764996592,0.0829971093396327
5.64598,7.718939567572212,0.0827602263341564
5.648384,7.735237808655136,0.0825263993374509
5.650772,7.749953257872224,0.0822912013808202
5.653152,7.768952447835867,0.08201814684546
5.655556000000001,7.7842269755603954,0.0817621160142977
5.6579440000000005,7.79670800660559,0.0815184576828041
5.6603200000000005,7.81147067765092,0.0812514813416619
5.662728,7.82129798164364,0.0810158681436326
5.665112000000001,7.831265055263219,0.0807747721323745
5.667491999999999,7.838298862576604,0.0805526459498616
5.669888,7.846683144330348,0.0803092579428263
5.672276,7.853996490897453,0.0800752955640223
5.674656000000001,7.859447506345001,0.0798491880006563
5.677059999999999,7.869414579964581,0.0796103983814798
5.679444,7.881243984703718,0.0793659129097684
5.681824000000001,7.891722915002495,0.0791424430576005
5.684227999999999,7.902621154181853,0.0789036676259875
5.686612,7.912727997428293,0.0786635092896135
5.688992000000001,7.9269788117944255,0.0783922173752114
5.691395999999999,7.940438230227641,0.0781199395958285
5.69378,7.949753677541162,0.0778785835452578
5.696164,7.963073326347517,0.0776132523433062
5.698563999999999,7.974251104780596,0.0773667050211823
5.700951999999999,7.979562350601284,0.0771531968172178
5.703332,7.988738028287944,0.0769209981301599
5.705728000000001,8.00284907302722,0.0766619640600728
5.708112,8.01081404590038,0.0764455688331265
5.710495999999999,8.023062759520098,0.0761935205540385
5.712896000000001,8.036522177953314,0.0759282148592108
5.7152840000000005,8.051192301200029,0.0756498150538394
5.717663999999999,8.062789388513686,0.0753915261752893
5.720068,8.073595079894428,0.075129923878817
5.722455999999999,8.08454054090203,0.0748623958771043
5.724836,8.09017854780468,0.0746030838861132
5.72724,8.092371431721938,0.0743461607046929
5.729623999999999,8.098056660452833,0.074052991034521
5.732004,8.10281072362395,0.0737645875642517
5.734408,8.107704556421927,0.0734710983339473
5.736796,8.10966512291371,0.0731925495151019
5.7391760000000005,8.112556854965268,0.0729118467265379
5.741572,8.118661392576746,0.0726053722752486
5.74396,8.119830563135606,0.0723247553496044
5.74634,8.121279272948192,0.0720327817824173
5.748732,8.122727982760773,0.0717396820488154
5.75112,8.119381095147606,0.0714657905268052
5.753496,8.112030006041605,0.0712143550203434
5.7559000000000005,8.107891722495518,0.0709376073906287
5.758288,8.100680403016378,0.0706795872463998
5.760668000000001,8.09039604760418,0.0704400643007464
5.763071999999999,8.073965620325874,0.0702370967803663
5.765456,8.062610329727038,0.070004168555079
5.767835999999999,8.055678549501618,0.0697334753945753
5.770236000000001,8.05289074039589,0.0694370919322038
5.772624,8.056760859835471,0.0691187600193392
5.775003999999999,8.06035144002133,0.0688109997191902
5.7774,8.062731315393693,0.0685180625468515
5.779783999999999,8.062969320392778,0.0682408806903463
5.782164,8.0642782605785,0.0679567517071952
5.784568,8.066797905577722,0.0676597163277939
5.786951999999999,8.06652405389761,0.0673692962725787
5.789332,8.066389971844357,0.0670738786874231
5.791736,8.067187055350884,0.0667755186970676
5.794124,8.069986239603827,0.0664680522475526
5.7965040000000005,8.074787524603185,0.0661507596878902
5.798908000000001,8.084663946282019,0.0658075672144255
5.801292,8.092678036841292,0.0654672371563884
5.803672000000001,8.098829796281011,0.0651307331636521
5.806075999999999,8.107914822026926,0.0647830860541293
5.80846,8.119933114079036,0.0644244584709366
5.810844,8.136886773183756,0.0640433799844216
5.81324,8.155702763408033,0.0636628334205936
5.815624,8.169303847325978,0.0633137238002106
5.818004,8.17782979456445,0.0629908324745227
5.8204080000000005,8.180628978817394,0.0626850417067614
5.822796,8.182357227883697,0.0623853802065982
5.825176000000001,8.180081275457168,0.0621025841322234
5.827572,8.177805323030638,0.061819283515886
5.829955999999999,8.170454233924636,0.0615593045061363
5.832352,8.165756871871109,0.0613006652317393
5.8347560000000005,8.165715337616472,0.0610346603968048
5.837144,8.164323328921478,0.0607858489436275
5.839524000000001,8.1649334209729,0.0605289858282912
5.84192,8.162470477091269,0.060286954382465
5.844308,8.159867763582774,0.0600502786751484
5.846684,8.153912474887505,0.0598389979447498
5.849080000000001,8.151821618058213,0.0596166026787742
5.851468000000001,8.155597293841305,0.0593766986629394
5.853847999999999,8.156299933691347,0.0591510019656679
5.856244,8.157002573541387,0.0589260762808028
5.858632,8.158776148578065,0.0586952617831931
5.8610120000000006,8.156685291748769,0.0584755785086042
5.863408,8.160460967531863,0.0582391156099362
5.865796,8.169172010367571,0.0579876981989203
5.8681920000000005,8.180536780255753,0.0577383672570996
5.870588,8.19604552126363,0.0574702213622361
5.872976,8.21462729820456,0.0571884305856642
5.875360000000001,8.235071406265048,0.0569052851812466
5.877763999999999,8.262173442870845,0.0566103072195593
5.880152000000001,8.284479882050888,0.0563266335632122
5.882531999999999,8.302642350111237,0.0560630839733097
5.884936,8.322806918918005,0.0557931227815409
5.887320000000001,8.338687746978218,0.0555466901529613
5.8897,8.357362071717766,0.0552978701521274
5.892099999999999,8.376036396457314,0.055049671345019
5.894484,8.396852591570138,0.054790332690277
5.896864000000001,8.420322513735439,0.0545359792059786
5.89926,8.437506594407768,0.0543126760946611
5.901648,8.45855510694607,0.0540818128081535
5.904032000000001,8.477461749111097,0.0538630026452962
5.906428,8.49837049202254,0.053639945511125
5.908811999999999,8.516857825306982,0.0534378159687852
5.911192,8.530130252285092,0.0532594545878602
5.913596,8.537256607397095,0.0531049455308071
5.915984,8.545314128068876,0.0529506334678277
5.918364,8.551229778367377,0.052807976771862
5.92076,8.558867990158577,0.0526697306142891
5.923147999999999,8.56450410120336,0.052537563426306
5.925528,8.569628355568945,0.0523925080191161
5.927932,8.578477272173641,0.0522458690346527
5.93032,8.589887368032196,0.0520747159628604
5.9327000000000005,8.59743303202478,0.0519099054428688
5.935104000000001,8.611404307137192,0.0517141970589393
5.937492000000001,8.62323371187633,0.0515290755352358
5.939871999999999,8.635994282175245,0.0513441843150456
5.942276,8.647404378033801,0.0511744870116571
5.944664,8.64987490534691,0.0510267992807511
5.947044,8.65248520228688,0.0508737002452689
5.949448,8.653233168107294,0.0507217155233525
