Time,Force,Position
4.682727999999999,3.9100619590103696,0.1777485680099957
4.685115999999999,4.103153087353042,0.1734333246259493
4.687512,4.258908837221703,0.1710056723746749
4.689907999999999,4.390968035073195,0.1694076335700605
4.692295999999999,4.521631432513954,0.1675854884003408
4.694675999999999,4.660399572454736,0.1650027817154699
4.697075999999999,4.788790809184705,0.1624675499658459
4.69946,4.879706897813801,0.1610184747777607
4.701844,4.955027385210012,0.1599270488329232
4.732916,4.882039551357917,0.1592905546182512
4.735303999999999,4.886835148783669,0.1591813989040987
4.737684,4.905598229606096,0.1587635653747834
4.740084,4.9390748637877415,0.1579611222815089
4.742471999999999,4.963287064199847,0.1573274161601147
4.744852,4.969759897147921,0.1570964506655625
4.747247999999999,4.973484559387034,0.1570165845846579
4.749635999999999,4.98037480535782,0.1568971521308097
4.75202,4.992572505433555,0.1566717434082645
4.754415999999999,5.013058147748679,0.1562231155729548
4.756803999999999,5.030842841183084,0.1558903991005525
4.759183999999999,5.051186818013477,0.1556223979744055
4.761576,5.078001731934076,0.1552600847432594
4.763959999999999,5.100440357309504,0.1549790558835236
4.792643999999999,5.22448546460172,0.1549783468639015
4.795019999999999,5.243711284417232,0.1548187349385415
4.797424,5.2733196950171655,0.1544506448985703
4.799811999999999,5.310471873751813,0.1538504745907675
4.802192,5.337800540209479,0.1534287356524525
4.804596,5.356888486256,0.1531444877144406
4.806979999999999,5.377047367489158,0.1528313573649328
4.80936,5.400419054282233,0.1524394631164886
4.811755999999999,5.429704495515942,0.1518790664384306
4.81414,5.455592035592501,0.1513312712662603
4.816535999999999,5.481711893094537,0.1508084254570526
4.818932,5.515094083619696,0.1502031800911811
4.82132,5.548476274144856,0.1496007764906385
4.823699999999999,5.579391729072643,0.1489976632536578
4.826103999999999,5.6045804210149015,0.1485065132220931
4.828491999999999,5.635029345233865,0.1479644309185727
4.830871999999999,5.671809436916176,0.1473611827275214
4.833268,5.716877470837872,0.1465755193539912
4.835656,5.769489272894282,0.1455663598896535
4.838035999999999,5.81362803711407,0.1446748516462064
4.840439999999999,5.848687463161552,0.1439882135895825
4.842824,5.8790438395818985,0.1434410199434501
4.845203999999999,5.907585106710932,0.1429021977071063
4.8476,5.929375897496039,0.1424583281656253
4.849983999999999,5.951446227534868,0.1419952277871382
4.852368,5.981802603955215,0.1414842388602455
4.854759999999999,6.01769875190599,0.1409412621703949
4.8571480000000005,6.053502352058146,0.140373871483013
4.859544,6.084697346239656,0.1398456315441127
4.861948,6.105974384487698,0.1395334194638278
4.864331999999999,6.131999798333247,0.1391883686358163
4.866712,6.162588492179072,0.1387438547020869
4.869107999999999,6.195553269681519,0.1381634276826945
4.871495999999999,6.221627801213181,0.1376606020210747
4.873875999999999,6.252310938715492,0.137136729385558
4.87628,6.290955257375226,0.1365150708354433
4.878667999999999,6.329926337116925,0.1358397498771483
4.881048,6.357957643424631,0.1352339464493565
4.883452,6.371974244507418,0.1348667428327654
4.88584,6.386408258612916,0.1345981289317765
4.8882200000000005,6.409966936861095,0.134253723649391
4.890611999999999,6.436134016191375,0.1337975471123053
4.892999999999999,6.451593639513137,0.1334318161947049
4.895379999999999,6.454621349475818,0.1332923163032572
4.897776,6.458485781341791,0.1332318641858174
4.900164,6.465190931715343,0.1330863795418808
4.902543999999999,6.463889574961096,0.1329493211626597
4.907328,6.4465752039512525,0.1328237630942626
4.909708,6.446157790928542,0.1327190574047355
4.928844,6.35873973468669,0.1326180135008492
4.931224,6.356552538343038,0.1325764653156312
4.933627999999999,6.363352132373077,0.1323499673122775
4.936016,6.362657075954513,0.1321387145856097
4.938395999999999,6.361170623603034,0.1319327594186749
4.940799999999999,6.3621036850206805,0.131795578866716
4.943187999999999,6.381287970581557,0.1314036350718011
4.945568,6.401590413157315,0.1309459113392115
4.94796,6.420869142374678,0.1304688960939004
4.950348,6.440612506442995,0.1300461020406259
4.9527280000000005,6.460121657227966,0.1297219957319147
4.955131999999999,6.488710146185242,0.1292515230895446
4.957519999999999,6.514971669172008,0.1287521122649667
4.959899999999999,6.534295724359745,0.1283592862352623
4.962296,6.555527436637412,0.1280273758296495
4.964684,6.588305222684757,0.1275828505085201
4.967063999999999,6.620478604254287,0.1270917867589496
4.969467999999999,6.652187350972862,0.1265470416703198
4.971855999999999,6.681986544743638,0.1260709203377649
4.974235999999999,6.714252474111785,0.1256166119326097
4.976632,6.749079582733789,0.1251062234728479
4.97902,6.775433653519172,0.1246638134919251
4.981399999999999,6.795781422065304,0.1243149263186808
4.983803999999999,6.818595926208807,0.1239916860937816
4.986191999999999,6.836986919978896,0.1237506354884491
4.988572,6.854773509271171,0.123459615909259
4.990967999999999,6.858173306286191,0.1233540493725121
4.993356,6.864226830353684,0.1232253614877873
4.995735999999999,6.866648239980683,0.1231739329925449
4.998132,6.872189907368977,0.1230332581211452
5.00052,6.8748455302793205,0.1228879938540207
5.033975999999999,6.716016744477605,0.122848763846302
5.036363999999999,6.700515586901207,0.1228443160399237
5.038744,6.693534688989674,0.1227391774321255
5.041136,6.681246336973191,0.1226805571913802
5.043524,6.67324172570326,0.1225498434398105
5.0459,6.666121058164866,0.1224518097885673
5.048295999999999,6.665006692865724,0.1222703396259907
5.050684,6.666034197939858,0.1220545538685113
5.05308,6.675629184507099,0.1217009410610905
5.055472,6.682570444021866,0.1213709763013708
5.05786,6.69016332984269,0.1210454060844351
5.06024,6.6968250501037385,0.1207261343822818
5.062643999999999,6.7033942225661685,0.1203712027899262
5.065028,6.708240833535903,0.1200278337427171
5.067408,6.715089545252053,0.1196593255317901
5.069799999999999,6.725802688834176,0.119248815481017
5.072187999999999,6.740939342789716,0.118763487688746
5.074584,6.75779855823795,0.1182691513829485
5.076979999999999,6.7766598744326,0.1177474256993027
5.079364,6.805112385478755,0.1171216095110065
5.08174,6.836637932457966,0.1164560346641134
5.084144,6.86523021313098,0.1158258853810306
5.086532,6.889306435631964,0.1152371448982909
5.088908,6.916967550745202,0.1146184773616047
5.091303999999999,6.94369750029866,0.1140150267589232
5.093688,6.965259765374029,0.1134444953800136
5.096083999999999,6.9829575985834245,0.112921374062443
5.09848,6.998513561419544,0.1124338299478859
5.100864,7.004990186083358,0.1120628299646546
5.103244,7.009836797053091,0.1117351642326242
5.105648,7.015614573582603,0.1113987903426584
5.108032,7.028050278657423,0.1109943976459457
5.110412,7.040206444478521,0.1106042736854664
5.112807999999999,7.054085171792318,0.1102032912326218
5.115192,7.0639596976132815,0.1098524402491789
5.117588,7.065686050821716,0.1096065683347167
5.119992,7.065410303283734,0.1093857926807878
5.122375999999999,7.059827101640803,0.1092006609566173
5.124756,7.052521338505175,0.1090246700457021
5.127155999999999,7.034273906077685,0.1089756086132996
5.129543999999999,7.014164142530638,0.1089415821206572
5.131924,6.997127414916646,0.1088682492194452
5.134323999999999,6.986096989541904,0.1087241792574419
5.136711999999999,6.9761374993538015,0.1085649689552274
5.139087999999999,6.9649673043522,0.1084274113146188
5.141487999999999,6.95845293714949,0.1082502542367361
5.143872,6.9515192610662,0.1080936599038815
5.146251999999999,6.942303944982773,0.1079735650564499
5.148655999999999,6.938675622258015,0.1078058028970381
5.151043999999999,6.9370494002796725,0.1076147123648449
5.153423999999999,6.938076905353807,0.1074078150712961
5.15582,6.937381848935244,0.1072108112886655
5.158208,6.939480289196018,0.1069911953551591
5.160587999999999,6.943441060576347,0.1067571189492214
5.162991999999999,6.9488448541956505,0.1065279266686585
5.165376,6.958764705986988,0.1062659549743836
5.167755999999999,6.9662631481513255,0.1060467404981753
5.170152,6.981210914793892,0.105766868286152
5.172535999999999,6.999743574048711,0.1054644542461749
5.174928,7.026796492968397,0.1050858572562427
5.177323999999999,7.050496836701304,0.1047566144340537
5.179708,7.075128345993989,0.1044236761440131
5.182103999999999,7.092403078607067,0.1041866412853371
5.184495999999999,7.105394070473588,0.104007508807556
5.186883999999999,7.116522731220554,0.1038428999554031
5.189259999999999,7.126720226407741,0.103687223723849
5.191656,7.139990757527984,0.1034963958037822
5.194044,7.156613863835004,0.1032560266258948
5.196439999999999,7.171793947903046,0.1030116517239967
5.198836,7.190186837531005,0.1027273860541169
5.201219999999999,7.204063668986931,0.1024731497368607
5.2036,7.218871666002637,0.102214391624022
5.206,7.231677562271925,0.1019777080079545
5.208387999999999,7.244762997794934,0.1017300694189795
5.210768,7.260269842944941,0.101443596286579
5.213168,7.278617406602525,0.1011007545343102
5.215555999999999,7.298455214327329,0.1007234477335086
5.217936,7.312286719812881,0.1004076860705713
5.220336,7.325978455671573,0.1001010921984681
5.222724,7.333291802238679,0.0998343344559077
5.225104,7.347961925485393,0.099484547108308
5.227499999999999,7.361421343918608,0.0991564785296353
5.229887999999999,7.375951697538462,0.0988126446828612
5.232268,7.393834626345092,0.0984232996430317
5.234672,7.41371965589814,0.0980139452534949
5.237055999999999,7.432813289518268,0.0976064234138982
5.239436,7.450044592018841,0.0972138471789124
5.24184,7.466065189705916,0.0968419639582329
5.244228,7.482457874445328,0.0964910554385499
5.246608,7.494986127318764,0.0961731938219349
5.2490120000000005,7.511378812058174,0.0958254960756382
5.251396,7.522556590491253,0.0955335466187238
5.253776,7.536016008924468,0.0952121879543891
5.256179999999999,7.543469125118433,0.0949453819270931
5.258568,7.546918039819564,0.0947155320342945
5.260947999999999,7.544872508960642,0.0945538136116879
5.263344,7.543618374034638,0.0943924696718471
5.265727999999999,7.541572843175716,0.0942297118874576
5.268112,7.538875686010736,0.0940607075658427
5.270508,7.543907392577704,0.0938335682278179
5.272891999999999,7.543724192838339,0.0936612083892781
5.275288,7.542889366792917,0.0934822778558357
5.27768,7.548200612613605,0.0932457567082708
5.280063999999999,7.551649527314735,0.0930207329967156
5.282444,7.558031708322063,0.0927745650786735
5.284848,7.563994580448809,0.0925471895552901
5.287236,7.566884416642499,0.0923476120277831
5.289615999999999,7.568843087276412,0.0921532855023714
5.292016,7.568939426790767,0.0919697483830748
5.294404,7.571829262984458,0.0917705315936761
5.296783999999999,7.572437459178012,0.0916010634755742
5.299187999999999,7.578260561677897,0.0913803721019613
5.301572,7.579520384177509,0.091217861065925
5.303951999999999,7.58650696966265,0.0910170454295872
5.306348,7.598428922200403,0.0907783379444029
5.308736,7.611421809924796,0.0905271866539722
5.311112,7.62907052544808,0.0902526489137265
5.313519999999999,7.651375068770254,0.0899520660267085
5.315904,7.671677511346013,0.0896690786143837
5.318284,7.68597365168252,0.089437616371801
5.320679999999999,7.69826769127261,0.0892210910411054
5.323063999999999,7.708280090862564,0.0890327965701935
5.32546,7.711215253026629,0.0889048902673751
5.327855999999999,7.715733207056529,0.0887793283114139
5.330244,7.716386729220455,0.0886802242754674
5.332623999999999,7.717459560264962,0.0885630465281097
5.335027999999999,7.723747297615803,0.0883971868681871
5.337411999999999,7.733108070899698,0.0882052688193423
5.339791999999999,7.743819318623953,0.0879904426260227
5.342196,7.751876839295734,0.0877849037894604
5.344579999999999,7.758351568101676,0.0875765026903055
5.346959999999999,7.761613491347704,0.087400954641348
5.349364,7.767576363474451,0.0871793984234877
5.351747999999999,7.771025278175584,0.0869606355783098
5.354127999999999,7.771680696197379,0.0867570217833342
5.356524,7.77634031571201,0.0865238603900543
5.358912,7.776344107427748,0.0863150012682481
5.361291999999999,7.776627438397208,0.0860955668124498
5.363688,7.777562395672723,0.0858832573578428
5.366071999999999,7.775703856268905,0.0856831021796614
5.368468,7.776918352798143,0.0854570748875697
5.370863999999999,7.781205885260436,0.0852056398162999
5.373251999999999,7.792710424775477,0.084894471137266
5.375632,7.805565438730879,0.084563353298108
5.378031999999999,7.817209747872781,0.0842472945118555
5.380419999999999,7.827783121828046,0.0839417406214646
5.3828,7.838216726156449,0.0836446356702209
5.385204,7.844646128992018,0.0833765583772954
5.387592,7.84907343108117,0.0831224683316233
5.389972,7.853081424289741,0.0828854884219486
5.392367999999999,7.85895174861787,0.0826398391622785
5.394755999999999,7.870176748879191,0.0823459483419941
5.397136,7.881261979513653,0.0820588060095952
5.399528,7.893138606081032,0.0817736976676858
5.401911999999999,7.902081966342217,0.0815059660312835
5.404308,7.9071608947374274,0.0812611607591217
5.406711999999999,7.91144842719972,0.0810145932929836
5.409096,7.912802693355817,0.0807861288119763
5.411476,7.916718138765773,0.080522111601271
5.413879999999999,7.925429181601479,0.0802323906634371
5.416264,7.938144425930021,0.0799184046597952
5.418643999999999,7.950068274325645,0.079603596253929
5.421044,7.950910683802544,0.0793631290261776
5.423432,7.945467251786473,0.0791730026249049
5.425811999999999,7.944307560516955,0.0789453476172455
5.428215999999999,7.944358574060937,0.0787025771547318
5.4306,7.940265616485224,0.0784914712087938
5.432979999999999,7.938174759655928,0.0782670143047954
5.435383999999999,7.93780646431933,0.0780406403853503
5.437771999999999,7.939859578609728,0.077784435852068
5.440147999999999,7.941912692900127,0.0775284717385914
5.442544,7.936748800137774,0.0773260025161859
5.444932,7.926230231442232,0.0771686750166485
5.447312,7.915711662746688,0.0770111540858703
5.449712,7.910640317782954,0.0768383428875848
5.4521,7.90542920319236,0.0766708624231143
5.45448,7.899938549348046,0.0765144379984888
5.456875999999999,7.897520931436786,0.0763364854026758
5.45926,7.88681537128614,0.076219378070848
5.461644,7.874107710389076,0.0761145853243177
5.464044,7.855393747252762,0.0760466381676724
5.466431999999999,7.837331410422506,0.0759862605406013
5.468812,7.830070973257252,0.0758665263699266
5.471207999999999,7.830958708704525,0.075691991170217
5.473595999999999,7.826491768218606,0.0755621510366055
5.475992,7.823607619598523,0.0754374278585252
5.478396,7.8239362765383555,0.0752859926026232
5.480779999999999,7.825196099037969,0.0751316919386607
5.48316,7.829528957470633,0.074957520965523
5.485564,7.830649010343386,0.0748095332025568
5.487952,7.830698128029498,0.0746701542682015
5.490332,7.834891216835303,0.0745013984110689
5.492735999999999,7.849234579000054,0.0742684977389518
5.49512,7.862367236351307,0.0740498581203442
5.497499999999999,7.868841965157252,0.0738579954429663
5.499903999999999,7.87852949952311,0.0736409358347772
5.502288,7.890219134635386,0.0734126228281046
5.504667999999999,7.897625029001107,0.0732190151944361
5.507064,7.914622118218333,0.0729839724480093
5.509452,7.935763178555252,0.0727219247493647
5.511832,7.957835404451951,0.0724561716125328
5.514227999999999,7.98046670885609,0.0721700705881508
5.516615999999999,8.000304516580893,0.0718957025883466
5.518996,8.014927417999365,0.0716590398422852
5.5214,8.033694290537529,0.0713942688956191
5.523788,8.048317191956,0.0711572393504767
5.526171999999999,8.060937992628055,0.0709318560584811
5.528575999999999,8.071696462180553,0.0707123463392832
5.53096,8.078450730240217,0.0705153891637084
5.533339999999999,8.089209199792714,0.0702973491452487
5.535743999999999,8.103040705278268,0.0700613671904188
5.538131999999999,8.110726138897709,0.0698618704962284
5.540516,8.110542939158345,0.069700033812482
5.542907999999999,8.112641379419118,0.0695168865179312
5.545296,8.123539618598475,0.0692952848776237
5.547675999999999,8.131085282591057,0.0691035198677818
5.550072,8.134766514717665,0.0689267794909811
5.55246,8.139658451657773,0.0687361490197535
5.554843999999999,8.141245035239347,0.0685401676197312
5.55724,8.13747694288773,0.0683834212169015
5.559628,8.137573282402085,0.0682122565689994
5.562007999999999,8.135760068968642,0.0680812691276094
5.564411999999999,8.132596381094839,0.0679688186495637
5.566796,8.131714333221172,0.0678357621613376
5.569175999999999,8.131903220534145,0.0676956861709951
5.571572,8.131440481541059,0.067546355291933
5.57396,8.132700304040672,0.0673979690096076
5.576343999999999,8.13489129210006,0.0672473293669597
5.578747999999999,8.13722204978631,0.0670910990690931
5.581132,8.140204433778619,0.066944430387388
5.583511999999999,8.140113781837869,0.0668150898043324
5.585915999999999,8.148962698442565,0.0666453646596965
5.588303999999999,8.163678147659656,0.0664528046371113
5.590684,8.178253827249883,0.0662666692767688
5.593088,8.18924461422786,0.0660855798013816
5.595476,8.201585875646192,0.0658869052111465
5.597856,8.219793669676916,0.0656665382600042
5.600259999999999,8.240934730013835,0.0654362563887173
5.602644,8.260725315910395,0.0652240351795293
5.605024,8.28587057774015,0.0649772411061463
5.607419999999999,8.30636001177101,0.0647407844955148
5.609807999999999,8.326617128376395,0.064480091473641
5.612188,8.348504258675858,0.0641929117147694
5.614583999999999,8.364385086736071,0.0639311987364368
5.616971999999999,8.376261713303451,0.0636875152773846
5.619351999999999,8.392142541363665,0.0634262934651132
5.621748,8.408442678304459,0.0631509336013667
5.624136,8.423951419312331,0.0628724994535132
5.626515999999999,8.439599929947068,0.0625889269408427
5.628916,8.451803317596411,0.0623028869779668
5.6313,8.465217410059255,0.062005084892132
5.633683999999999,8.474115444350065,0.0617119803409312
5.63608,8.48129091714818,0.0614188874190631
5.638468,8.491027569200151,0.0610998603563191
5.640848,8.496760019759288,0.0607965012430167
5.643243999999999,8.502492470318426,0.0604936470640707
5.645631999999999,8.50450025863845,0.0601973156016652
5.648016,8.50250384546564,0.0599164696835511
5.650411999999999,8.502789072292968,0.059618248964561
5.652799999999999,8.497347536134766,0.0593327994167036
5.65518,8.49497903590962,0.0590335560879375
5.657575999999999,8.491819139751554,0.0587297767485283
5.659964,8.486237833966491,0.0584483693801979
5.66236,8.4857316648609,0.0581448097311255
5.664755999999999,8.48843830131523,0.0578228185922309
5.667144,8.491424477023275,0.0574921460135338
5.669523999999999,8.492129012731183,0.0571787995276934
5.671927999999999,8.496837749931926,0.0568527471838685
5.674311999999999,8.505550688625501,0.056514448571132
5.676696,8.511330361012885,0.0561825001654954
5.679091999999999,8.517110033400265,0.0558510786486227
5.681479999999999,8.52582297209384,0.0555133770381435
5.683859999999999,8.530391939667723,0.0551934494004681
5.686256,8.527604130561997,0.0549086018613022
5.688644,8.525607717389187,0.0546264623278833
5.691023999999999,8.524402700149297,0.0543489822291602
5.69342,8.52105581253613,0.0540817254049991
5.695808,8.521852896042653,0.0537970839300852
5.698188,8.520508109175902,0.0535238798912605
5.700588,8.520885883801846,0.0532533182820289
5.702976,8.518982018427653,0.0529989456894868
5.705356,8.518521175292436,0.0527577583370562
5.707751999999999,8.5202022025305,0.0525057773466519
5.710136,8.523885330514979,0.0522487774843003
5.712536,8.52528681849932,0.052007723971963
5.714931999999999,8.525198062416441,0.0517871400055175
5.717319999999999,8.524317910400645,0.0515615073544164
5.7197,8.515010046518599,0.0513730830012498
5.722095999999999,8.500347506703362,0.0512110853207637
5.72448,8.488198924313739,0.0510567268163716
5.72686,8.4740482411777,0.0509074431520376
5.729263999999999,8.454263342854746,0.0507938622099944
5.731652,8.439413811584407,0.0506683394416659
5.734031999999999,8.429359877739817,0.0505357313092247
5.736435999999999,8.421168275014784,0.0504021478086118
5.738823999999999,8.410043405983556,0.0502741323190598
