Time,Force,Position
5.246984000000001,4.545789985228805,0.1688333834874911
5.249379999999999,4.632879384530825,0.168476714636828
5.251767999999998,4.707215796965407,0.1680655024990786
5.254148000000001,4.770195022943285,0.1677100479275217
5.256543999999998,4.822328919143655,0.1674019610711178
5.2589320000000015,4.866318434447236,0.166999370449157
5.261312,4.896623797323601,0.1665923469380232
5.263708000000001,4.911055915571232,0.1663170283992598
5.266096000000001,4.916038504452086,0.1661213531130218
5.270876000000001,4.911105033257343,0.1660895148191704
5.273264000000001,4.911896429190262,0.1660792733153267
5.275644,4.920089927773163,0.1659524857305104
5.278040000000001,4.935033902699991,0.1657059847156459
5.280428000000001,4.950722051731492,0.165508458559355
5.2828240000000015,4.971670433039701,0.1652741587449615
5.285219999999999,4.997786498825998,0.1649463626150885
5.287607999999999,5.019106967186544,0.1647325110824717
5.289988000000001,5.046061650734003,0.1643344087832436
5.292383999999998,5.0745065783486805,0.1638754575549049
5.294771999999998,5.105745002642694,0.1633667962654685
5.2971520000000005,5.134841556563431,0.1629307554805151
5.299551999999999,5.170456269402615,0.1623611395645441
5.301939999999998,5.204348420749104,0.161827380225581
5.304320000000001,5.237169636908952,0.1613250334244652
5.3067160000000015,5.274227371987112,0.1607710260447978
5.309104000000001,5.320177453782475,0.1600763314021666
5.311488000000001,5.370643593749867,0.1593032870222038
5.313883999999998,5.42204089927704,0.1585182728323047
5.316272000000001,5.4767907799909885,0.1576468818647664
5.318652,5.537546962944187,0.1566576834767468
5.321051999999998,5.593647318098496,0.155760924555274
5.323436000000001,5.645139067282155,0.1549037946433939
5.32582,5.6932329153086645,0.1540543510605547
5.328216000000001,5.737277235871964,0.1531973208356031
5.330604000000001,5.771637813785146,0.1525074643139022
5.332996000000001,5.804927456511687,0.1518522452144321
5.335395999999999,5.844875027783538,0.1510631490942643
5.337783999999999,5.87816467051008,0.1504094044274426
5.3401640000000015,5.909871521370786,0.1497787839286501
5.342563999999999,5.937202083686322,0.1492229699623407
5.344951999999999,5.963741250068939,0.1486765956820157
5.3473320000000015,5.983762257533107,0.1482520391385773
5.349736,6.00248001238516,0.147823232206238
5.352124,6.020313823505678,0.147360369780971
5.354503999999999,6.032468093468908,0.1469612563528938
5.3569,6.031725815222103,0.1467793994200497
5.366456,5.972331481856478,0.1467575687246348
5.368839999999999,5.952967788271974,0.1467482068249851
5.371236,5.939982483979061,0.1466388101922288
5.373624,5.926997179686145,0.1465283483944664
5.376003999999998,5.917736537632344,0.1463565108961347
5.378404,5.913551032258015,0.1460811281530203
5.380787999999999,5.908713900577627,0.1458028854214365
5.383171999999998,5.900571415538708,0.1455574735308633
5.385567999999999,5.894058944193867,0.1452502276025324
5.387955999999999,5.882239018744077,0.1450139209992763
5.390339999999998,5.869907236615089,0.1447644561515609
5.392735999999999,5.859717324859379,0.1444665815357619
5.395123999999999,5.850877887544027,0.1441252320771817
5.397507999999998,5.837103083176063,0.1438760426633623
5.399903999999999,5.823328278808099,0.143625824145573
5.402291999999999,5.809785791865613,0.1434062829844847
5.4046720000000015,5.802202385334134,0.1431161528212959
5.407067999999999,5.800066202534465,0.1427430044492195
5.409455999999999,5.800304207533547,0.1423506073034859
5.4118400000000015,5.80706037145108,0.1418509157550381
5.414235999999999,5.816702579846567,0.1413423384016567
5.416619999999998,5.819407320443023,0.1409731683081257
5.419004000000001,5.81531436286731,0.140729555312081
5.421399999999998,5.811081635664739,0.1404946413554459
5.423787999999998,5.801634002155834,0.1403722501693329
5.433347999999999,5.751594754500498,0.140367268437214
5.442912,5.732370830542856,0.1403284401263284
5.4453,5.735351318677294,0.1402238052427577
5.447679999999998,5.740985533864207,0.1400847156395265
5.450075999999999,5.748901389051258,0.139889320787712
5.452463999999999,5.756724696439689,0.1396539504390161
5.454847999999998,5.759100780096314,0.1394973036952634
5.459631999999999,5.754866157035871,0.1394011852434556
5.462012000000001,5.7530982695728,0.1393302858736844
5.464411999999999,5.752121778042649,0.1392539090844563
5.466799999999999,5.753799013564971,0.1391427219707136
5.469183999999999,5.75556879688591,0.1390723759440982
5.471579999999999,5.767069544685214,0.1388292793618828
5.473967999999999,5.778989601365097,0.1385586917773107
5.4763480000000015,5.794402002858618,0.1381976064262402
5.478752,5.808743469165499,0.1378621926924787
5.48114,5.821362373979684,0.1375467655627819
5.483519999999999,5.832538256554893,0.1372343722273699
5.485924000000001,5.839337850584933,0.1369758322453375
5.4883120000000005,5.848558854241968,0.1366510479743502
5.490691999999999,5.8616442897649765,0.1362618818620299
5.493096000000001,5.87165668935493,0.1359384555444469
5.495484000000001,5.878456283384969,0.1356846698824357
5.497864,5.88325377666859,0.1354689035309405
5.500260000000001,5.889494292191187,0.1352542930239227
5.502648000000001,5.899831557005235,0.1350073779735776
5.505027999999999,5.91259023144628,0.1346981407788044
5.507428000000001,5.930703581820517,0.1342758104989485
5.509812,5.943881565142144,0.1339411950114164
5.512195999999999,5.961063749956603,0.1335376461508624
5.514592,5.976663142905227,0.1331418014654259
5.51698,5.994963484734568,0.1326681111152569
5.519364,6.006745667645461,0.1322929359514132
5.52176,6.019179476862413,0.1319235934632621
5.524148,6.032264912385421,0.1315623342455997
5.526527999999999,6.045350347908431,0.1312016145824494
5.528935999999998,6.060298114550997,0.1308159966261803
5.531320000000001,6.07603727712648,0.1304281631651798
5.533704,6.095640871567937,0.1299822646388284
5.536100000000001,6.116827257875231,0.1295322272199062
5.538488000000001,6.135359917130049,0.1291151187350969
5.540868,6.152961410825089,0.1287119395356442
5.543264000000001,6.174706875639823,0.128237071419408
5.5456520000000005,6.197383506014336,0.1277520568733203
5.548031999999999,6.218197805269293,0.1272941836601918
5.550432000000001,6.239291643777969,0.1268239747581934
5.5528200000000005,6.261828504525621,0.1263607200783536
5.555204,6.284085826019553,0.1259197802429321
5.557600000000001,6.309928040125738,0.1254415758631048
5.559984,6.333768153485506,0.1249999949511779
5.562367999999999,6.364917821696641,0.1244829013866946
5.564764,6.394717015467416,0.1240061544965578
5.567152,6.425028065917388,0.1235417083301144
5.569531999999999,6.4553391163673615,0.1230796309796128
5.571928,6.483508296444057,0.1226575648558592
5.574316,6.509395836520616,0.1222787190826795
5.576712000000001,6.539287578090008,0.1218486963471783
5.5791080000000015,6.5731835211522345,0.1213694522429225
5.581496000000001,6.605868759400962,0.1209207264969006
5.583876,6.63734329283619,0.1205011233186097
5.586272000000001,6.668538287017698,0.1200978375058072
5.588660000000001,6.699593511572348,0.1197026995749816
5.591044,6.727715469820801,0.1193499180417282
5.593440000000001,6.75755998956195,0.1189888091546144
5.595828000000001,6.788056135609157,0.1186338586543841
5.598212,6.8184125120295045,0.1182905917404242
5.600608000000001,6.848117262143794,0.1179473951068675
5.602996000000001,6.877822012258084,0.117608513153313
5.605376,6.908737467185871,0.1172506501753729
5.607772000000001,6.938581986927021,0.1169107694155679
5.6101600000000005,6.960697642936223,0.1166627506735354
5.612544,6.981090737452729,0.1164261669112166
5.614940000000001,7.001763371222955,0.116175048350564
5.6173280000000005,7.021644609060265,0.1159267252994074
5.619707999999999,7.047020292457625,0.1155941653890554
5.622108000000001,7.07667971660154,0.1151967100584128
5.624496000000001,7.099261903319567,0.1148938627229064
5.626875999999999,7.1138356870519255,0.1146921485369361
5.629272,7.12454503891831,0.1145320310018129
5.63166,7.134742534105499,0.1143598842024206
5.634043999999999,7.146150734106184,0.1141653503771924
5.63644,7.15755893410687,0.1139708165519642
5.638828,7.168967134107556,0.1137765887327692
5.641224000000001,7.172926009630015,0.1136521658188734
5.643619999999999,7.1774439636599165,0.1134999316709124
5.646007999999998,7.177585629144646,0.1133771646004237
5.653172000000001,7.150168206604101,0.1133042699101965
5.655556000000001,7.137553093505654,0.1132883522935062
5.657951999999998,7.129361490780622,0.1132024426680725
5.6603400000000015,7.124103154361785,0.113083729837438
5.662724000000001,7.122057623502863,0.1129189587368012
5.665119999999998,7.118941157457303,0.1127694261439379
5.6675080000000015,7.108747453985854,0.112706190003484
5.669892000000001,7.096831189021708,0.1126519313508892
5.672287999999998,7.086265398497922,0.1125686853049192
5.674675999999998,7.082125219093967,0.1123942709071198
5.677056,7.082408550063426,0.1121518865313695
5.679455999999998,7.083762816219523,0.1118950039955607
5.681843999999998,7.083114981629205,0.1116614489578502
5.684228000000001,7.083817621479246,0.1113995638062577
5.686623999999998,7.081866534276809,0.1111541615142483
5.689015999999999,7.087784080433181,0.1108226267194188
5.691396000000001,7.092630691402914,0.1105071404595823
5.693795999999999,7.101201964611761,0.1101590141347251
5.696183999999999,7.110704403380385,0.1098017797937932
5.698567999999998,7.125980826962786,0.10934731125703
5.700963999999999,7.14311958166474,0.1088760608595239
5.703355999999999,7.15583482599328,0.1084717467455268
5.705735999999998,7.162543768082569,0.1081364294257109
5.708136,7.165667817559607,0.1078267896782146
5.710524,7.165718831103588,0.1075564623781804
5.712907999999999,7.168191254274568,0.1072430528679106
5.715304,7.171594843005325,0.1069206336408237
5.717696,7.17471889248236,0.1066124575440038
5.720075999999999,7.180915977892455,0.1062682334546503
5.722476,7.180827221809576,0.1060052093631347
5.782195999999999,6.849287131176608,0.10580179752587
5.784576000000001,6.848682726698793,0.105753900050411
5.786971999999999,6.851570667034615,0.105648935581651
5.789359999999999,6.855250003303355,0.1055434933152671
5.791740000000001,6.868427986624981,0.105317436549226
5.794135999999998,6.883235983640685,0.1050504976421993
5.796520000000001,6.903398656589583,0.1047121194746353
5.798915999999998,6.928636466217954,0.1043196930725616
5.801311999999999,6.954293584726904,0.1039107959887589
5.803699999999999,6.98288396954205,0.1034748671953431
5.8060800000000015,7.0117538936109165,0.1030260101778851
5.808479999999999,7.039041025813947,0.1025790881945675
5.810863999999999,7.06446582689742,0.1021452762614529
5.8132480000000015,7.093615290220006,0.1016864646789404
5.815652,7.124254997609813,0.1011906072951832
5.818035999999999,7.157316114626616,0.1006541411031085
5.820415999999998,7.190005144591082,0.1000971976978203
5.82282,7.22190277862263,0.0995415037488235
5.825208,7.251006915974844,0.0990120689490244
5.827587999999999,7.277317556647723,0.0985055805016272
5.829992000000001,7.301765866201043,0.0980157633055218
5.832380000000001,7.324491614261668,0.097536496922687
5.834759999999999,7.3440045567623775,0.0970997330369638
5.837164000000001,7.362446564076448,0.0966756837592414
5.839552000000001,7.370738298031575,0.0963585481324116
5.841932,7.3766086223597025,0.0960811366549831
5.844328000000001,7.381687550754913,0.0958053859909543
5.846716000000001,7.3829020472841504,0.0955627810667893
5.849095999999999,7.381323047134052,0.0953390398766167
5.8515000000000015,7.37709031993148,0.0951272568371612
5.853888000000001,7.371926427169129,0.0949212515335991
5.856268,7.370347427019031,0.0946983929811936
5.858664000000001,7.372772628361767,0.0944392405696501
5.861052000000001,7.369471066718973,0.0942218825824132
5.863432,7.370033936942153,0.0939755539032272
5.8658280000000005,7.368454936792055,0.0937536844214989
5.868216,7.371531764440849,0.0935045135237472
5.8706,7.376982779888397,0.0932580118910493
5.8729960000000005,7.381874716828505,0.0930369604257416
5.875384,7.389420380821087,0.0928060943239797
5.877763999999999,7.393893008880614,0.0926037985957969
5.880168000000001,7.396735623246061,0.0924386299756144
5.882556000000001,7.399019159104069,0.0922983709182979
5.884936,7.40558643570863,0.0921112971286691
5.887332000000001,7.419882576045136,0.0918676273750962
5.8897200000000005,7.4352496515682835,0.0916118638528978
5.892104,7.44884694377049,0.0914002229346086
5.894500000000001,7.461233531159197,0.0912066360121421
5.896888000000001,7.473061040040465,0.09103795295241
5.899267999999999,7.4876820456010655,0.0908537462845614
5.901664,7.503885843027504,0.090671588609904
5.904052,7.515154273401329,0.0905296900275012
5.906431999999999,7.523070128588379,0.0904294683494473
5.908828,7.537643912320739,0.0902861438836352
5.911216,7.551146760866461,0.0901563679489374
5.913599999999999,7.566511940531737,0.0900164564066024
5.915996,7.577872918704181,0.0899110239615518
5.918384,7.584438299450872,0.0898371061453631
5.920767999999999,7.593425089824561,0.089728845326797
5.923164,7.601480714638471,0.0896263815267385
5.925552,7.615263102437911,0.089487701652566
5.927931999999998,7.632118526170407,0.0893220048309237
5.930327999999999,7.651395359529901,0.0891218356443119
5.932715999999999,7.66638845214284,0.0889673505201562
5.935112,7.674583846583611,0.0888601076662258
5.937508000000001,7.684781341770798,0.0887376730083277
5.939896000000001,7.696608850652065,0.0885805380965536
5.942276,7.710438460279748,0.0884077766601366
5.944672000000001,7.727620645094208,0.0881970155771312
5.9470600000000005,7.743731894722029,0.0879986092742849
5.949439999999999,7.759191518043792,0.0877936597495588
5.951836,7.779586508418168,0.0875538097400318
5.9542280000000005,7.804405009165958,0.0872669124762176
5.956607999999999,7.8234967469282175,0.0870154704511771
5.959004,7.838724052824503,0.0867889443201259
5.961392,7.852228797228093,0.0865661442271758
5.963771999999999,7.8638712105121265,0.0863521125614562
5.966168,7.880728530102492,0.0860914115217152
5.968556,7.897306310439137,0.0858447895810022
5.9709520000000005,7.913232464469723,0.0855919650861207
5.973348000000001,7.927715596261334,0.0853328071152603
5.975736000000001,7.941686871373747,0.0850625049976344
5.978116,7.957660247232578,0.0847802626358746
5.980512000000001,7.973913162345129,0.0844859981602047
5.982900000000001,7.995520753390871,0.0841422055348323
5.985284,8.015266013317056,0.0838086652483553
5.987680000000001,8.032217776563908,0.0834882643448328
5.990068000000001,8.047586747944925,0.0831653481285115
5.992448,8.060162222646605,0.0828560443116518
5.9948440000000005,8.068361408803113,0.0825548629248041
5.997228,8.074558494213207,0.0822670410632169
5.999611999999999,8.077170687011046,0.0819906639920039
6.002008,8.073776577569634,0.0817553520103567
6.004391999999999,8.074386669621056,0.0814930888818196
6.006792000000001,8.078069797605535,0.0812076667534984
6.009184000000001,8.08389479596329,0.0809036494529052
6.011572000000001,8.089999333574767,0.0805871028950027
6.013952,8.09037710820071,0.0802990081727731
6.016352000000001,8.087449529468122,0.0800093410313576
6.018740000000001,8.08265961961598,0.079726754869534
6.02112,8.075867609017418,0.0794573930344118
6.023516000000001,8.064140231366245,0.0792170541298866
6.025904000000001,8.044963529236846,0.0790054060321369
6.028283999999999,8.025926596734305,0.0787872487460608
6.03068,8.001814527552295,0.0786033477148145
6.033068,7.975048731317808,0.0784235268589282
6.035451999999999,7.947211999896684,0.0782517783745623
6.037848,7.922448304408614,0.0780567240155543
6.040236,7.898615774480323,0.0778571852584141
6.042632000000001,7.879578841977783,0.0776332204661671
6.045027999999999,7.861892383915603,0.0773876173821438
6.047415999999998,7.843134990666784,0.0771501247502051
6.049800000000001,7.828801107791379,0.0768692821217077
6.052195999999999,7.808740461930445,0.0766137122051292
6.054583999999998,7.786677715323094,0.0763700686463008
6.056968000000001,7.762612867969326,0.0761379183217918
6.059363999999999,7.74362315729503,0.0758715549699179
6.061751999999999,7.734504180725958,0.0755507691380643
6.064132000000001,7.725105664903165,0.0752398914238082
6.066527999999998,7.714636213893735,0.0749361319800895
6.0689160000000015,7.703887223630583,0.0746430425865925
6.071296,7.694860794860129,0.0743474491464623
6.073695999999998,7.691281589821483,0.0740373484256644
6.076080000000001,7.687702384782837,0.0737267060130952
6.078464,7.685705971610028,0.0734199635862564
6.080860000000001,7.688225616609251,0.0731032721003824
6.0832440000000005,7.697403190153781,0.0727600630890841
6.085623999999999,7.70136585739198,0.0724554216528322
6.088024000000001,7.7033264238837615,0.0721622232239631
6.090412000000001,7.704076285562043,0.0718842381529111
6.092807999999998,7.706548708733022,0.0716065632140887
6.095203999999999,7.708089966344223,0.0713303453818271
6.097591999999999,7.7080012102613455,0.0710864304506634
6.099975999999998,7.712847821231078,0.0708162610156942
6.102371999999999,7.715040705148336,0.0705474881137432
6.104755999999998,7.717885215371653,0.0702873865514396
6.107140000000001,7.712953640034779,0.0700986031097105
6.109539999999999,7.700805057645157,0.0699583184082348
6.111923999999998,7.691729511188589,0.0697981188484228
6.114308000000001,7.688240958090692,0.0696220058005654
6.116712,7.684100778686735,0.0694364855003556
6.1191,7.686898067081808,0.0692166003836112
6.121479999999998,7.691837225850159,0.0689818755561639
6.123875999999999,7.696636614991648,0.0687525993615012
6.126259999999999,7.704928348946775,0.0684885119503657
6.128644000000001,7.713499622155622,0.0682152379163581
6.131039999999999,7.718206463498496,0.067958713958145
6.133427999999999,7.725846571147565,0.0676889791260383
6.135808000000001,7.736280175475968,0.0674124522377461
6.138203999999998,7.747644945364151,0.0671345234724775
6.140591999999998,7.759149484879193,0.0668526942217682
6.142972,7.774518456260207,0.0665565588794178
6.145368000000001,7.788956262081444,0.0662625186246701
6.147756000000001,7.803254298275823,0.0659758375023873
6.150151999999999,7.823930723761785,0.0656804766661186
6.152548,7.8458178540612495,0.0653732602570043
6.154931999999999,7.874410134734264,0.0650092135145354
6.157312000000001,7.901419623541445,0.0646372477625472
6.159707999999998,7.926287241975347,0.0642818733585756
6.162095999999998,7.947430198170134,0.0639362839969115
6.1644760000000005,7.972158046977176,0.0635894897501259
6.1668720000000015,7.989017262425411,0.0632762656913038
6.169260000000001,7.998939010074617,0.0629927856670668
6.171644000000001,8.011654254403158,0.0627046929470995
6.1740400000000015,8.025021125037757,0.0624285571282233
6.176428000000001,8.03438379417952,0.0621708077538731
6.178823999999999,8.043886232948147,0.061908230919711
6.18122,8.054459606903409,0.0616395449203322
6.183608,8.066243685672172,0.0613603325846552
6.185987999999998,8.07416333257496,0.0610924054754184
6.188383999999999,8.08073250503739,0.0608427649623646
6.190771999999999,8.088093073432738,0.0605982534543129
6.193155999999998,8.096664346641585,0.0603417767500836
6.195551999999999,8.104024915036932,0.0600979873557761
6.197939999999999,8.107660821193166,0.0598607539428063
6.200320000000001,8.11101718809568,0.0596347907456397
6.202715999999999,8.113954246117613,0.0594258732084737
6.205103999999999,8.12019665749808,0.0592270201498746
6.207484000000001,8.126950925557745,0.0590423148867256
6.209879999999998,8.136638459923605,0.0588492112799241
6.212267999999998,8.145394828729685,0.0586584198663997
6.214663999999999,8.156013528655324,0.058464413379918
6.217064000000001,8.172358991566492,0.0582576955465258
6.219452,8.189123763358237,0.0580375074560627
6.221831999999999,8.20388643440357,0.0578265037686617
6.224228,8.220371666941599,0.0576182581867153
6.226616,8.235646194666126,0.0574216641554953
6.228995999999999,8.24863908239052,0.0572429829842932
6.231392,8.258279394928136,0.0570885525823678
6.233779999999999,8.272715304891502,0.0569239112256824
6.236163999999999,8.287151214854871,0.0567595044002064
6.23856,8.299724793698681,0.0565979592901124
