Time,Force,Position
7.193736,2.429713620723015,0.1753146056430288
7.196123999999999,2.5513467976775805,0.1722481375507791
7.198508,2.6616227881754417,0.169624758977497
7.200904,2.755279464082022,0.1680014722595234
7.203296,2.8374372880471688,0.1668061968317742
7.205672,2.9213195693628804,0.1651643403933047
7.208064,3.0036209546706254,0.1632757464079202
7.210452,3.075309327626341,0.1616745818824232
7.212828,3.1338235089761683,0.1605896966745644
7.246304,3.226173140554894,0.1595295861081766
7.248683999999999,3.2323645383913786,0.1594379232515369
7.251075999999999,3.246192252161193,0.1589893985587755
7.253463999999999,3.255364138132116,0.1587023679331428
7.255856,3.262301605931145,0.1584458153304474
7.25826,3.2690993041033134,0.158203741264558
7.260648,3.272032570409509,0.158095192749213
7.263028,3.2728239663424272,0.1580817076212406
7.26782,3.27612931970096,0.1580112079974165
7.270196,3.2833916527240827,0.1578725183316691
7.272591999999999,3.296333526904493,0.1576162143949283
7.274976,3.317655891122908,0.1570852291910247
7.277355999999999,3.3431222264610168,0.1563884235813442
7.279752,3.3660746043735115,0.1557743094098666
7.28214,3.386652794487252,0.1551859500152636
7.28452,3.405648192735156,0.154620193810484
7.286923999999999,3.4239919646770023,0.1540561930774033
7.289308,3.444896915872705,0.1533623121474384
7.291688000000001,3.459423477776822,0.1528702823751048
7.294084,3.4715758518821827,0.1524184580682017
7.296467999999999,3.4797240244947107,0.1521120729094072
7.298864,3.489175449719354,0.1518259864994634
7.301259999999999,3.4981150182647998,0.1515178279585768
7.303647999999999,3.5036094638248523,0.1512871222407862
7.306032,3.5116650886387637,0.1509255220347856
7.308436,3.526518411624842,0.1503404415786879
7.31082,3.544444770543977,0.1496493672651866
7.313203999999999,3.561207646477856,0.1489431124521639
7.3156,3.5841638161060887,0.1479407068950261
7.317983999999999,3.6028834668160106,0.1470408080786604
7.320364,3.622162196033373,0.1460927193559658
7.322772,3.635342075212869,0.1452897359667316
7.325156,3.645775679541272,0.1444953646903515
7.327536,3.65327601756348,0.1437873878482249
7.329931999999999,3.664081708944221,0.143020240765695
7.332319999999999,3.6740487825638,0.1423305443607632
7.387283999999999,3.471940704740019,0.1417558042709222
7.389671999999999,3.476086571717582,0.1413895828914307
7.392052,3.483585013881921,0.1409041466112053
7.394456,3.489593211979041,0.1405000784790788
7.396844,3.490059742687865,0.1403755947905459
7.399224,3.4894553382100506,0.1402888241287321
7.401619999999999,3.494857235971486,0.1400184438493389
7.404004,3.5031924000391164,0.1396618270743854
7.406388,3.5171145574654177,0.1391649647568559
7.408783999999999,3.527544370078082,0.1388106306651069
7.411172,3.54169884492986,0.138356305404303
7.413551999999999,3.558274729408635,0.1377987877129087
7.415948,3.578155967245944,0.137190218985032
7.418336,3.599992084001426,0.1366056646202229
7.420716,3.622479827062966,0.1360159995209681
7.423112,3.641242907885392,0.1355155179180862
7.425499999999999,3.6549308520283463,0.1351885971333025
7.42788,3.671924149529834,0.1348262919567127
7.430284,3.6943646707631306,0.1343518746420981
7.432672,3.716944961623288,0.1338764239822989
7.442216,3.7713642895395343,0.1334690132654994
7.444611999999999,3.790824322638393,0.1331879554777572
7.446999999999999,3.8144283268569454,0.1327922436322678
7.44938,3.838963496635276,0.132387470041235
7.451779999999999,3.864849140853965,0.1319326164137109
7.454164,3.8872896620872623,0.1315348611452579
7.45656,3.9169471903733073,0.1309431667718261
7.458959999999999,3.9478154234728526,0.130314777373004
7.461344,3.976541786199121,0.1297577724688815
7.463723999999999,4.005966997059689,0.1291479996559917
7.466127999999999,4.03502012086792,0.1285133440158774
7.468515999999999,4.066075345422568,0.1278263556952356
7.470896,4.1020659370298285,0.1270194235805742
7.4733,4.139918859756646,0.1261728133190576
7.475688,4.173395493938291,0.1254112247641836
7.478068,4.200773278082069,0.1247475205663366
7.480468,4.2278715229721255,0.1241208942198724
7.482856,4.253107436742628,0.123532898309286
7.485236,4.280392673087788,0.1228252927737192
7.487636,4.311729332754027,0.1219355335141262
7.490024,4.342134826860487,0.1210666269479625
7.492404,4.362390047608001,0.1204603010415547
7.4948,4.376918505369986,0.1199719824578516
7.497187999999999,4.389072775333216,0.1195027433729078
7.499572000000001,4.397874470109671,0.1191319052662546
7.501968,4.409190122311741,0.1187390985649315
7.504356,4.412776910781863,0.1184987377114752
7.506739999999999,4.41357020257265,0.1183059330602259
7.509136,4.413432328803659,0.118128265597104
7.511528,4.410221419101613,0.1180208629515209
7.513904,4.406730970145846,0.1179369409545812
7.516308,4.404730765257297,0.1177918294922253
7.518696,4.400868229249193,0.1176767085439553
7.521075999999999,4.396493836561891,0.1175419208947898
7.523479999999999,4.3938420053672855,0.1173896610271068
7.525864,4.3943557579043535,0.1172252069143598
7.528243999999999,4.391424387456028,0.1170955762178048
7.530644000000001,4.38942418256748,0.1169518329576968
7.533032,4.386213272865435,0.1168447184954502
7.535408,4.383514219842586,0.1167571248640426
7.537803999999999,4.380954936446597,0.1166581641430066
7.540188000000001,4.380257984170166,0.1165298491243603
7.542567999999999,4.382354528573069,0.1163580368596957
7.590339999999999,4.26625733143319,0.1162932346576726
7.592715999999999,4.261136868783344,0.116277952503597
7.595131999999999,4.258670133185973,0.1162311496303367
7.597516000000001,4.258577585387356,0.1161762435523938
7.599895999999999,4.261697843148656,0.116044950049235
7.602311999999999,4.2596031946036215,0.1160297993279796
7.604696000000001,4.266448114604033,0.1158422758018301
7.607092,4.280510041657196,0.1154980719412494
7.609496,4.292709637590799,0.1151778059718165
7.611879999999999,4.301836197591348,0.1149230057455692
7.61426,4.312964858338313,0.1146301194062226
7.616652,4.328237490204973,0.1142495452881551
7.619035999999999,4.344301518004551,0.1138617739449152
7.621416,4.357432279497933,0.113525496317977
7.623811999999999,4.364184651699729,0.113275962268142
7.626196,4.376384247633333,0.1129516632734026
7.628575999999999,4.381134519088711,0.1127437406805716
7.630988,4.383370833118474,0.1125578398362394
7.633372,4.386258773454296,0.1123807555497304
7.635752,4.3863532171107815,0.1122467013307572
7.638156,4.388729300767406,0.1120498200810247
7.64054,4.392827945916726,0.1118380953511593
7.64292,4.3959954255062685,0.111642089212983
7.645324,4.398790818043473,0.1114149716727614
7.647708,4.39958410983426,0.1112274752166216
7.650088,4.405732077558239,0.1109167643435564
7.652480000000001,4.404430720803992,0.1107132518478518
7.654868,4.3992649321837725,0.110573004565835
7.657264,4.398894740989305,0.1103572339165012
7.659660000000001,4.401877124981612,0.110058045623552
7.662048,4.401134846734807,0.1098103309943098
7.664427999999999,4.392384165502333,0.1097090438509566
7.666824,4.3854032675908,0.1095272410608473
7.669212,4.381076096731741,0.1093173966048499
7.671592,4.385408955164406,0.1089678808308641
7.673995999999999,4.385085985798182,0.108683992726557
7.676384,4.3898381531114286,0.1082999563916849
7.678763999999999,4.393100076357457,0.1079736449331646
7.681167999999999,4.398643639603622,0.1075902564936094
7.683555999999999,4.4061893035962045,0.1071710714522946
7.685936,4.412524262775288,0.1067885650364119
7.68834,4.4149947900883975,0.1064676566279226
7.690723999999999,4.416673921468589,0.1061492671139677
7.693104,4.416862808781562,0.1058873302892329
7.695499999999999,4.4146302864675375,0.1056939635802085
7.697887999999999,4.409184958593597,0.1055713977633857
7.700267999999999,4.409186854451466,0.1053860306297795
7.702664,4.408629671801895,0.1052445338265999
7.705052,4.406210158032766,0.105128096643722
7.707431999999999,4.402440169823279,0.1050569909913601
7.709835999999999,4.4043969445993225,0.1049033740591819
7.712223999999999,4.414082583107312,0.1046307944595695
7.714604,4.42265006460042,0.1044470270304442
7.716996,4.435501286840083,0.1041757084535544
7.719384,4.4434171420271324,0.1039871298200757
7.721776,4.45291578908002,0.1037958412910457
7.724171999999999,4.463066062438964,0.1036177411643033
7.726556,4.480153803596938,0.1033331631326804
7.728935999999999,4.494820135127914,0.103115818981468
7.731332,4.508275761845391,0.1029320226686131
7.733715999999999,4.522942093376367,0.1027178513011801
7.736096,4.539470756026899,0.1024803138618553
7.738507999999999,4.555580109796851,0.1022748409855721
7.740892,4.573971103566941,0.1020164789296319
7.743271999999999,4.597577003643362,0.1016627688515273
7.745676,4.624255939652839,0.1012582555275695
7.748063999999999,4.651214414916035,0.1008444001474635
7.750444,4.683387796485566,0.1003419105008374
7.752848,4.719285840294209,0.0998070473278833
7.755231999999999,4.759048315968825,0.0992299813838564
7.757612,4.793875424590831,0.0987301862309151
7.760007999999999,4.8279111372799175,0.0982409301279699
7.762392,4.865578964409499,0.0976690156947722
7.764771999999999,4.897100719672972,0.0971978727390515
7.767175999999999,4.932626676429277,0.0966747766399672
7.769563999999999,4.972576143558997,0.0960762239012352
7.771939999999999,5.009592344382521,0.0955172148010399
7.774336,5.037296889608263,0.0950535338433409
7.776724,5.065280974087725,0.0945708572824662
7.779104,5.094196224126965,0.0940807780780394
7.781495999999999,5.123111474166206,0.0935962121317343
7.783884,5.153377198645805,0.0930783195066289
7.786263999999999,5.184993397565762,0.0925259634922893
7.788676000000001,5.218611697232138,0.091957431647339
7.791064,5.2485053346594,0.0914277807647187
7.79346,5.276536640967105,0.0909197134859746
7.795856000000001,5.297350940222062,0.0905126274750552
7.79824,5.313369642051265,0.090158262613001
7.800623999999999,5.32394112014866,0.0898438787565176
7.80302,5.32627187783491,0.0895893285265149
7.805408,5.328882174774879,0.0893159732797753
7.807788,5.326696874289097,0.0890895489436702
7.810184,5.318365501937204,0.0889446652832968
7.812567999999999,5.315528575145366,0.0887082761999824
7.814947999999999,5.30989815167419,0.0884950535511723
7.817344,5.297981886710045,0.0883698863292402
7.819732,5.290349362492454,0.0881805848456953
7.822111999999999,5.288443601260393,0.0879392616595275
7.824524,5.284675508908775,0.0877113531880718
7.826912,5.281326725437737,0.0874577770109355
7.829292000000001,5.275975841220284,0.0872268504418577
7.831683999999999,5.270485187375969,0.0870051755184664
7.834071999999999,5.264063367971876,0.0867903864333512
7.836451999999999,5.252426642261452,0.0866436014809406
7.838848,5.243583413230361,0.0864766917217899
7.841236,5.232458544199133,0.086348423676863
7.843631999999999,5.2276195166608765,0.0861368029572516
7.846028,5.220918158003062,0.0859372153387319
7.848412,5.214216799345249,0.0857363182318283
7.850792,5.216035700352302,0.0854663963422936
7.853196,5.216783666172716,0.0852107468102022
7.855584,5.22232722941888,0.0849128985259491
7.857963999999999,5.23229430303846,0.0845435657604376
7.860355999999999,5.234904599978431,0.0842737119602679
7.862743999999999,5.236443961731763,0.0840190865411567
7.865136,5.239333797925453,0.083729834468126
7.867531999999999,5.239802224492147,0.0834913937180016
7.86992,5.235847140685425,0.0833226760786173
7.872299999999999,5.235756488744677,0.0831196693349041
7.874703999999999,5.233384196803791,0.0829557551709099
7.877088,5.232734466355603,0.0827880309648273
7.879467999999999,5.228871930347498,0.0826652774577971
7.881871999999999,5.222867523966117,0.082572335488091
7.884256000000001,5.219004987958013,0.082448823144908
7.886635999999999,5.210998480830215,0.0823771196654781
7.88904,5.208067110381888,0.0822474240546705
7.891427999999999,5.203133639187145,0.0821391263539113
7.893808,5.203926930977933,0.0819852613077843
7.896208,5.209236280940752,0.0818103382390582
7.898595999999999,5.211332825343656,0.0816811550448307
7.900976,5.218085197545451,0.0815231886549759
7.90338,5.221764533814191,0.0814003420039349
7.905764,5.2270266619487655,0.081284783894174
7.908144,5.237363926762813,0.0811147734128248
7.910539999999999,5.245699090830445,0.0809633445989488
7.912927999999999,5.252823550084576,0.0808341693891108
7.915308,5.256363116726456,0.0807189249793777
7.917704,5.264186424114889,0.0805460521217407
7.920092,5.270938796316684,0.080389102206151
7.922471999999999,5.281974909265032,0.080177107520437
7.924868,5.293430331093962,0.0799413082828781
7.927251999999999,5.311171594415862,0.0796326788955594
7.929632,5.333987994417235,0.079273808662475
7.932043999999999,5.359225804045606,0.0788753393622561
7.934431999999999,5.387955958487612,0.0784198223831131
7.936812,5.4131012203173645,0.0779813462506195
7.939216,5.437315316587339,0.0775489381731004
7.941599999999999,5.456733815431562,0.0771521408050801
7.94398,5.470565320917116,0.0767857189428958
7.946375999999999,5.481882868977055,0.076417306252017
7.948763999999999,5.487613423678322,0.0760785905584118
7.951143999999999,5.494414913566231,0.0757262858753536
7.953548,5.496281036401525,0.0754155499103092
7.955931999999999,5.496145058490403,0.0751228726340088
7.958311999999999,5.50294654837831,0.0747734380811402
7.96072,5.514962944572551,0.074369535515555
7.963103999999999,5.531774938192542,0.0739344007924821
7.965484,5.541929003267224,0.0735382535037132
7.967879999999999,5.549569110916293,0.0731396119498579
7.970267999999999,5.5541361826323055,0.0727740186833624
7.972647999999999,5.5557699880421225,0.0724297455660283
7.975047999999999,5.552188887145609,0.0721411625848732
7.977435999999999,5.542601484009843,0.0719019093885174
7.979816,5.528590570500664,0.0717188805382326
7.98222,5.511087312177849,0.0715876282168491
7.984608,5.493584053855034,0.0714548503873675
7.986988,5.475801256278497,0.071337577095267
7.989392,5.464164530568072,0.0711635903691903
7.991776,5.458394337470037,0.0709500463893153
7.994156,5.454626245118419,0.0707201053848247
7.996556,5.453931188699857,0.0704616679993305
7.998939999999999,5.455657541908293,0.070165159840997
8.00132,5.459805304743725,0.0698287578172355
8.003724,5.467165873139073,0.0694590890058398
8.006108,5.466797577802474,0.0691341647239448
8.008488,5.465637886532956,0.0688081103074314
8.010883999999999,5.461964237837824,0.0684770396671225
8.013268,5.467090388061278,0.0680937362970787
8.015648,5.475801430896985,0.0677066026055921
8.01806,5.482650142613137,0.0673251105545308
8.020448,5.492571890262342,0.0669195086310384
8.022828,5.503192486045848,0.0664746997761654
8.025231999999999,5.517305426642992,0.0659809134473705
8.027616,5.532768841680493,0.0654589047670158
8.03,5.5527955367182695,0.0648797145054938
8.032396,5.574544793248743,0.0643048151002016
8.03478,5.597644524219573,0.0637039043184209
8.03716,5.615529348884072,0.0631536996664359
8.039564,5.629829280936319,0.0626107393169483
8.041952,5.64105617705551,0.0620891971420537
8.044328,5.654285173921116,0.0615589969001211
8.046724,5.66430136522681,0.0610616949736044
8.049112,5.6741777869056405,0.0605737981953612
8.051508,5.681912338211196,0.0601084071459608
8.053904,5.697655292502418,0.0595978864010383
8.056288,5.708183340487308,0.0591284260514473
8.058667999999999,5.717360914031838,0.058682334521269
8.061072,5.724536386829951,0.0582533977528214
8.06346,5.731851629254925,0.0578209458320156
8.06584,5.74382269947879,0.0573817450658382
8.06824,5.756445396008713,0.0569592879108669
8.070624,5.766367143657919,0.0565819737291183
8.073004,5.776381439105741,0.0562483960041741
8.075408,5.785976425672984,0.0559362114446327
8.077796,5.794220937799866,0.0556500249018508
8.080176,5.801254745113253,0.0553804107978798
8.08258,5.807217617239997,0.0551195816346763
8.084968,5.8131804893667445,0.0548581639670944
8.087348,5.818444513359189,0.0546325016732083
8.089751999999999,5.829575069964024,0.0543858402570104
8.09214,5.840426087315138,0.0541563399348673
8.09452,5.851928730972312,0.0539400966226591
8.096916,5.864874396868459,0.0537445077204339
8.099304,5.876749127577971,0.0535573294368959
8.101684,5.880196146421232,0.0534282079368773
8.104087999999999,5.889230158623165,0.0532936630004
8.106472,5.90119743713129,0.0531494968440595
8.108851999999999,5.909020744519726,0.0530306525910401
8.111256,5.913910785601964,0.0529221036244148
8.113643999999999,5.9150761644450895,0.0528172427179897
8.116024,5.911166406608741,0.0527370868051751
8.118428,5.912331785451867,0.0526319688268925
8.120816,5.914987408362212,0.0524986629207035
8.123199999999999,5.921647232765388,0.0523492236006755
8.125596,5.927096352355067,0.0522148473213129
8.127979999999999,5.934827111944883,0.0520591347747637
8.13036,5.946142764146952,0.0519088742121864
8.132764,5.957318646722161,0.0517652179244291
8.135152,5.9698450037377295,0.0516001120035887
8.137532,5.979158555193382,0.0514586289365016
8.139928,5.983257200342702,0.0513471650580907
8.142316,5.98842678067866,0.0512285497135674
8.144696,5.991873799521923,0.0511045324410666
8.1471,5.995181048738325,0.0509870740714147
8.149488,6.008638571313671,0.0508242754270071
8.151868,6.019162827582823,0.0506706485802076
8.154264,6.027405443851837,0.05053851853674
