Time,Force,Position
7.4833919999999985,1.7026947703566109,0.1978092652509772
7.485787999999999,1.7601285372304538,0.1976190755402146
7.488175999999999,1.8142588466036336,0.197089837939136
7.490555999999998,1.8654577855284875,0.1964035401393961
7.49296,1.911303944378017,0.1959356594950513
7.495343999999999,1.9544510502046992,0.1953052860406397
7.497727999999999,1.999834470061144,0.1941014897897429
7.500119999999999,2.039445800961685,0.193231393927169
7.502507999999999,2.077568783652876,0.1923139749467971
7.504904,2.112341087015161,0.1912334708341533
7.507300000000001,2.1420401495558425,0.1901870422624352
7.509688000000001,2.170018546461697,0.188867719162805
7.512067999999999,2.1940871855312034,0.1877170406094981
7.514472000000001,2.2115451178836447,0.1869100722599785
7.516856000000001,2.2306330639301657,0.1859392149593834
7.519235999999999,2.247207052551072,0.1851175657208446
7.521636000000001,2.2594973004254246,0.1846358833126159
7.524024000000001,2.2770950024047263,0.1838887417631003
7.526403999999999,2.29729920960826,0.1831426068140972
7.528807999999998,2.321180857222663,0.1823488573728639
7.531192000000001,2.3571676571141844,0.1808878844450001
7.533571999999999,2.3945974792446822,0.179392493652343
7.535975999999998,2.432539158054378,0.1779562521354876
7.538364000000001,2.4652659305577407,0.176847998290376
7.540744,2.500925969367299,0.1756158395173189
7.543140000000001,2.53635369075138,0.1743115521274054
7.545524,2.5688953676575084,0.173126913611416
7.547908,2.60120472713816,0.1718930990449575
7.550311999999998,2.6247142877002263,0.1711596063583255
7.552696000000001,2.6553010856881816,0.1700553321947628
7.555076,2.688960919609192,0.1687951422629398
7.557479999999998,2.721410048716704,0.1676450371320256
7.559864000000001,2.751857077077799,0.1666497195634828
7.562244,2.7868201636109253,0.165485669054087
7.564647999999998,2.821503710890331,0.1644099273165854
7.567035999999998,2.8549765533562383,0.163417233947539
7.569416,2.8899396398893646,0.162310994826737
7.571812000000001,2.921457603437098,0.1613355991840381
7.574200000000001,2.9510206880666576,0.1603650706954384
7.576575999999999,2.974484922658349,0.1596057492870388
7.578972,2.989708436838897,0.1591757942205607
7.58136,3.0053512599000243,0.158693440867742
7.583752,3.0188994344161184,0.1582256971862812
7.586155999999999,3.038081824119126,0.1574415099558543
7.588543999999999,3.0532600123293,0.156850310067496
7.590924000000001,3.069741453151589,0.1562700807834973
7.593323999999999,3.0873863769591345,0.1557309675196809
7.595711999999999,3.10517107039354,0.1551845506710063
7.598092000000001,3.128170670134277,0.1543906933653141
7.600496,3.1442328020759853,0.1539011672722627
7.602879999999999,3.1573616677114997,0.1535331285609025
7.605260000000001,3.1759849789070658,0.152926763307967
7.607664,3.1923738719307373,0.1523477673323132
7.610052,3.202524145289681,0.1519454712801219
7.612431999999998,3.208298130103455,0.1516589020783478
7.614827999999999,3.215562358984448,0.1512754996349087
7.6172119999999985,3.2217556526788025,0.1509418687983502
7.619592000000001,3.228460803052353,0.1506279493917776
7.621995999999999,3.233163852679488,0.1503883493340566
7.624379999999999,3.2426624997323743,0.1499836097324537
7.626760000000001,3.2606814064501264,0.1493118891021803
7.629163999999999,3.2805626442874347,0.1485996791172267
7.631551999999999,3.304959940296774,0.1477828345781462
7.633931999999998,3.326935826679116,0.1470972932473678
7.734276000000001,3.2866256476442746,0.147004969071301
7.736671999999999,3.287696582830913,0.1469621434312863
7.7390599999999985,3.291328697271409,0.1467904334205734
7.741440000000001,3.2935177894729293,0.1466243443389941
7.743843999999999,3.299711083167283,0.1463285647287717
7.746231999999999,3.308837643167832,0.1459445303794542
7.748612000000001,3.319686764661077,0.145523188501759
7.751016,3.3364024187667143,0.1449275603159845
7.753399999999999,3.359776001417659,0.1441473063044085
7.7557839999999985,3.3875258726137747,0.1432694249945745
7.758179999999999,3.4222132116089186,0.1421863163979997
7.760563999999999,3.458251025044422,0.1410544406258951
7.762947999999998,3.4931253554946697,0.1398927837459687
7.765343999999999,3.52585781557164,0.138814270781446
7.767731999999999,3.561523541954806,0.1376619100659991
7.770112000000001,3.598679512405192,0.1364304008453229
7.772507999999998,3.627454992817572,0.1354055409794842
7.774895999999998,3.6519467324833976,0.1345440576349413
7.777276,3.677741724761339,0.1336955567414594
7.7796759999999985,3.709263480024811,0.132704850247219
7.782060000000001,3.743858271221338,0.1316328220944171
7.784451999999998,3.773657464992113,0.1307072641651266
7.786847999999999,3.794889177269781,0.1300751086233788
7.789231999999998,3.815561811040008,0.1295029458425631
7.791612000000001,3.830507681824704,0.1290770990429703
7.794015999999999,3.844662156676482,0.1286663307224647
7.796399999999998,3.860818732274677,0.1282036742117797
7.798780000000001,3.8712485448873415,0.1278855825291813
7.801172000000001,3.879024630447532,0.1276219295269185
7.810744,3.8706007102970217,0.127445890772123
7.813123999999998,3.868506061751988,0.1274360883876987
7.817912,3.862082346490026,0.1274180506242528
7.8202919999999985,3.866925165744021,0.127237421756012
7.822687999999999,3.873258229065236,0.1269841533068444
7.825071999999999,3.8781482701474737,0.1267281154557895
7.827452000000001,3.877032008990461,0.1266248723904659
7.829855999999999,3.8719115463406153,0.1266213635070744
7.832243999999999,3.8685136451834654,0.1265943512537651
7.834623999999998,3.868747858466812,0.1264317615699371
7.837028,3.869261611003879,0.1262424936588953
7.839416,3.872568860220281,0.1259947007681773
7.841795999999999,3.873594469436546,0.1258254307724937
7.844192,3.871826581973475,0.1257132444906011
7.8513519999999986,3.858327525143494,0.1256699688372088
7.877639999999999,3.811963822041159,0.1256672849084286
7.880043999999998,3.809357316816927,0.1256342698984087
7.882432000000001,3.809124999391449,0.1255861968136506
7.884812,3.811825948272167,0.1254717259254109
7.887215999999999,3.818531098645719,0.1252632656835297
7.8896039999999985,3.827098580138828,0.125019093652019
7.891984000000001,3.836317687937993,0.1247823492184024
7.894387999999999,3.847259357229855,0.1245228547307981
7.896771999999999,3.863788019880388,0.1241537484523345
7.899156000000001,3.877662955478445,0.12382326030873
7.901551999999999,3.881667156971279,0.1237263526663185
7.903939999999999,3.8915378910765033,0.1234978275296469
7.906320000000001,3.9029914170475632,0.1232621838031072
7.908723999999999,3.920591014884735,0.1228693753848326
7.911107999999999,3.945407619774655,0.1222845401962978
7.913488000000001,3.968594210970496,0.1217904139176197
7.915891999999999,3.991780802166337,0.1212937772106832
7.918275999999999,4.012173896682843,0.1208478764151951
7.920659999999998,4.034569091945765,0.1203648873472923
7.923055999999999,4.0571040568355485,0.1198699376100549
7.925443999999999,4.077776690605775,0.1194109841286638
7.927824000000001,4.094724662136888,0.119024867033046
7.930228,4.110229611429025,0.1186379162333239
7.932611999999999,4.121450819974608,0.1183699609583973
7.934995999999998,4.126945265534661,0.1182147194662542
7.937391999999999,4.130996688855738,0.1180545661679189
7.939779999999999,4.140402788110007,0.1177580828162668
7.942160000000001,4.151299131431497,0.117401443798478
7.944564,4.161404078820067,0.1170519284088944
7.946952,4.17644439326125,0.1166051437828399
7.949331999999998,4.199632880314961,0.1159799253225053
7.951727999999999,4.218817165875836,0.1154441028277736
7.954115999999999,4.238700299571013,0.1148588658455837
7.956499999999998,4.254998540653939,0.1143262876324022
7.958895999999999,4.270505385803944,0.1138073024962906
7.961283999999999,4.287782014274891,0.113212465040796
7.963664000000001,4.306920973865393,0.1125919641473447
7.966068,4.330203904575589,0.1118857868526843
7.968456,4.348551468233174,0.1112726078212332
7.9708359999999985,4.369040902264034,0.1106171779863509
7.973231999999999,4.392323832974231,0.1099262267916357
7.975619999999999,4.415606763684426,0.1092326097413718
7.977999999999998,4.438749924767762,0.1085526369350184
7.980395999999999,4.461520998798763,0.1078342258155552
7.982783999999999,4.4860146343224585,0.1070970902669501
7.985164000000001,4.5134415361523486,0.10631607957794
7.987559999999998,4.531649330183073,0.105723048290225
8.042492,4.386270483525226,0.1053119697758608
8.044896000000001,4.393020959869152,0.105271591445465
8.04728,4.397769335466661,0.1052664047577147
8.04966,4.407313308489921,0.1051912106322708
8.052064000000001,4.418999151886458,0.1050716042672947
8.054452000000001,4.4326870960294125,0.1049180211911242
8.073571999999999,4.464250385547519,0.104830607825765
8.075959999999998,4.465181551107298,0.1048185299396171
8.07834,4.47039645741363,0.1047158480654812
8.080735999999998,4.476310211854263,0.1045599227478279
8.083123999999998,4.487299102974369,0.1043166640096724
8.085504,4.503642670027668,0.103969438287408
8.087896,4.517472279655351,0.1036352915387382
8.090284,4.528648162230561,0.1033274600670554
8.092676,4.538660561820514,0.1029908522427827
8.095071999999998,4.548952500664188,0.1026339840126881
8.097459999999998,4.555380007641889,0.1023305269661012
8.09984,4.5570119171938375,0.1020902928901493
8.102243999999999,4.557712661186007,0.1018613559924456
8.104631999999999,4.5654906426040665,0.1015181696648722
8.107015999999998,4.57154606252943,0.1011841846768923
8.109407999999998,4.579883122454931,0.1007987088572232
8.111795999999998,4.596368354992958,0.1002746937793819
8.114176,4.616206162717762,0.0996731371759796
8.116579999999999,4.6391170063756215,0.0990230253585231
8.118967999999999,4.667382525966673,0.0982821768335826
8.121348000000001,4.693925484065028,0.0975499479905739
8.123752,4.717395406230328,0.0968742471351532
8.12614,4.734998795783238,0.0962864956094455
8.128519999999998,4.747247509402954,0.0957967217384427
8.130916,4.754840395223779,0.0953611770229318
8.133303999999999,4.754424878058937,0.0950445082935886
8.135684000000001,4.75694262720029,0.0946907583584918
8.138079999999999,4.758249671528144,0.0943659837713136
8.140463999999998,4.757694384736442,0.0940590783683533
8.142848,4.755276766825182,0.0937697098388899
8.145243999999998,4.755932184846978,0.09343209390627
8.147631999999998,4.760731573988469,0.0930262164238228
8.150012,4.762737466450624,0.0926459176249597
8.152408000000001,4.76008753111389,0.0923140589969088
8.154796000000001,4.760510631710209,0.0919347165548901
8.157191999999998,4.755858595627055,0.0916288250963209
8.159588,4.745200257304652,0.0914067725215878
8.161976,4.735333314915167,0.0911854234071837
8.164352000000001,4.721462171032847,0.091018301635492
8.166747999999998,4.697720293045304,0.0909753641190674
8.169135999999998,4.676632142110235,0.0909156849437072
8.171520000000001,4.657546091921584,0.0908277785428051
8.173915999999998,4.637900963225491,0.0907809093817728
8.176303999999998,4.624262136768648,0.0906519307212964
8.178684,4.608062131057949,0.0905912214433962
8.181087999999999,4.595726557213222,0.0904850575322452
8.183475999999999,4.578595385942744,0.0904323167563448
8.185856000000001,4.564677020232182,0.0903216227886897
8.188255999999999,4.5511307415739575,0.090242819103606
8.190639999999998,4.542240290714624,0.0901198182183859
8.193024000000001,4.535491710228569,0.0899594114802982
8.195419999999999,4.527252885675293,0.0898474325112771
8.197804000000001,4.524601054480687,0.0896859771166307
8.200199999999999,4.523252475898197,0.0895482717852562
8.202596,4.522415753994905,0.0894331667954654
8.204979999999999,4.526374629517365,0.089267083753183
8.207363999999998,4.535129102465577,0.0890502680738946
8.209768,4.544814740973567,0.0888282884846687
8.212152,4.557293876160891,0.0885825270792158
8.214531999999998,4.576151400639804,0.0882890076519962
8.216936,4.597150795491994,0.0879656234557268
8.219324,4.617870651090463,0.0876649868861565
8.221703999999999,4.643153786689208,0.0872756112034865
8.2241,4.670299253407509,0.0868808508209081
8.226488,4.701588691245503,0.0864235696860954
8.228867999999999,4.7308760283370805,0.0859918837587187
8.231264,4.763748258040911,0.0855378155856945
8.233652,4.792476516625048,0.0851455299294798
8.236031999999998,4.82534874632888,0.084697505399815
8.238427999999999,4.853145839353237,0.0843176028763393
8.240815999999999,4.873725925324846,0.0840379796896388
8.243196000000001,4.895656485736815,0.0837235358350467
8.2456,4.911860283163255,0.0834623773479661
8.247988,4.926760827977577,0.0831777807977186
8.250367999999998,4.941149516112701,0.082874976159065
8.252772,4.957819844247964,0.0825352668893818
8.25516,4.971836445330751,0.0822083884958197
8.257539999999999,4.983711176040261,0.0819157481693367
8.259936,4.994514971563133,0.0816399975743748
8.262324,5.004527371153086,0.0813637094032686
8.264703999999998,5.00732276369029,0.0811784578019055
8.267104,5.008535364361658,0.0809876984028169
8.269487999999999,5.0083974905926665,0.0808321696422296
8.271868000000001,5.001461918651507,0.0807384112615764
8.274268,4.995737051523846,0.0806203806574831
8.276656,4.994435694769599,0.0804337767607106
8.279036000000001,4.991411776522655,0.0802499309120779
8.281431999999999,4.992392059768547,0.080024797473907
8.283819999999999,4.99258094708152,0.0797989350781759
8.286216,4.998124510327686,0.0795016511338469
8.288612,5.010465771746019,0.0791468142677592
8.291,5.022807033164353,0.0787947748312126
8.293379999999999,5.041154596821938,0.0783844697342605
8.295776,5.061876348278277,0.0779864829525473
8.298164,5.080316459734479,0.0776268753386275
8.300543999999999,5.092330960070849,0.0773523513160078
8.302948,5.108209892273193,0.0770510846744866
8.305332,5.119293227049785,0.0767810857957529
8.307716,5.132518432199654,0.0764849500442794
8.310112,5.145743637349522,0.0761907523702268
8.3125,5.1691191158583365,0.075795720752138
8.314879999999999,5.19249459436715,0.0754008006097651
8.317276,5.214799137689325,0.0750210063603959
8.319664,5.239105781757917,0.0746191555278394
8.322043999999998,5.260199620266594,0.0742609490425018
8.324448,5.277009718028714,0.0739610476464177
8.326836,5.298755182843449,0.0736238034644999
8.329215999999999,5.318358777284907,0.0733154231611736
8.331612,5.337543062845782,0.0730363687705483
8.334,5.351372672473466,0.0728235082611236
8.336379999999998,5.3594755191156205,0.0726460465422894
8.338776,5.368509531317552,0.0724660645931931
8.341164,5.371397471653373,0.0723455198613555
8.34356,5.37163168493672,0.0722298143986288
8.345956000000001,5.373867998966483,0.0720973531850237
8.348344,5.383181550422135,0.0719023536736829
8.350724,5.388351130758093,0.0717501143033815
8.35312,5.400597948519941,0.0715348336405176
8.355508,5.411773831095151,0.0713339905618092
8.357887999999999,5.42294971367036,0.0711344489140925
8.360284,5.425046258073264,0.0710129172933086
8.362668,5.428585824715143,0.070907881292325
8.365064,5.4311942257972445,0.0708065841080653
8.367460000000001,5.434594022812263,0.0707093404085618
8.369848000000001,5.439856150946838,0.0706042089099126
8.372228,5.445630135760612,0.0705192108654193
8.374631999999998,5.447120379827831,0.0704830258989786
8.377019999999998,5.451683659828105,0.0704196182235156
8.3794,5.452662047216126,0.0703634894656118
8.381796000000001,5.454571600163925,0.0703031235904875
8.384184000000001,5.462347685724116,0.0702036515524174
8.386564,5.465048634604835,0.0701475326885829
8.388967999999998,5.472684950538165,0.0700558412403845
8.391355999999998,5.4821835975910505,0.0699567645249156
8.393736,5.490751079084158,0.0698620422166838
8.396139999999999,5.493591797591737,0.06979851370709
8.398523999999998,5.499365782405509,0.0697161126192313
8.400904,5.503789292778924,0.0696619874759187
8.403299999999998,5.505419306473003,0.0696186635102785
8.405688000000001,5.503324657927969,0.0695895741368182
8.408068,5.503651419009933,0.0695210189688871
8.410464000000001,5.505608193785975,0.0694095503551538
8.412848,5.508635903748658,0.0692864413423609
8.415227999999999,5.514085023338336,0.0691254835175955
8.417628,5.519301825502538,0.0689293126225498
8.420016,5.525217475801041,0.0686938098579267
8.422395999999999,5.532902909420483,0.0684088509235819
8.424800000000001,5.537143220054532,0.0681231154237998
8.427184,5.545527501808276,0.0678022050624948
8.429564,5.559685768375792,0.0674072799394031
8.43196,5.569327976771278,0.067021547611964
8.434348,5.583393695540178,0.066584861642706
8.436744000000001,5.594014291323686,0.0661454627619793
8.439139999999998,5.603191864868217,0.0656898919088245
8.441527999999998,5.612928516920188,0.0652051234452996
8.443908,5.626017744158935,0.0646824646233671
8.446311999999999,5.639666049905123,0.0641349891087077
8.448695999999998,5.652942268598974,0.0635620282499229
8.451076,5.670362458412517,0.0629583045972391
8.453475999999998,5.691926619345756,0.0623220915671249
8.455860000000001,5.715213341771692,0.0616909062901763
8.458244,5.73649796345121,0.0610771467549355
8.460639999999998,5.758201894011309,0.0604431382969775
8.463024,5.775901623078574,0.0598350113773519
8.465408,5.793973439198176,0.0592577685204392
8.467804000000001,5.813255960131277,0.0586678533421337
8.470192,5.830256841064243,0.0581062766703081
8.472572,5.845767477929987,0.0575744205954158
8.474968,5.858065309235816,0.0570721475950812
8.477356,5.864728925354732,0.0566330044825959
8.479752000000001,5.874046268526123,0.0561967639064647
8.482147999999999,5.8829443028169335,0.0557846791428645
8.484535999999999,5.896498164906635,0.055367588499371
8.486916,5.909492948488895,0.0549789239591687
8.489311999999998,5.922720049496634,0.0546266706777502
8.491699999999998,5.930312935317458,0.054329927376864
8.49408,5.934273706697788,0.054080822481501
8.496476000000001,5.936744234010897,0.053861489318205
8.498864000000001,5.934931020577452,0.0536754097422027
8.501244,5.931767332703649,0.053512084212501
8.50364,5.92646177445657,0.0533649750065346
8.506028,5.917803641022713,0.0532486237079984
8.508423999999998,5.910588529827834,0.0531516333662596
8.510819999999999,5.906818541618346,0.0530650435303507
8.513207999999999,5.899044351916025,0.0529960582431723
8.515591999999998,5.890431544452544,0.0529693711294995
8.517996,5.881678967362203,0.0529494141054439
8.532332,5.7941040787726665,0.0529345021059416
8.53472,5.776831242017458,0.0529265544221761
8.537099999999999,5.760908879702608,0.0528959897113535
8.539496,5.75113258925387,0.0528328625217914
8.541884,5.741775607685714,0.0527480336294617
8.544263999999998,5.735771201304333,0.0526326632182242
8.546664,5.731768895669369,0.052508545407286
8.549047999999999,5.727906359661263,0.052377248234437
8.551428000000001,5.7252545284666585,0.0522309091928711
8.553828,5.7276778339515255,0.0520602194351588
8.556216,5.725445311637502,0.0518920051844773
8.558596000000001,5.722561163017419,0.051710915023323
8.560991999999999,5.7231693592109725,0.0514919857888557
8.563379999999999,5.719401266859354,0.0512600139434632
8.565760000000001,5.714562239321098,0.0510345759030654
8.568159999999999,5.712376938835316,0.0508139132523813
8.570543999999998,5.711402343163034,0.0505764273197986
8.572928000000001,5.716434049730001,0.0503146988602922
8.575323999999998,5.7197431948042725,0.0500457837117759
8.577711999999998,5.723983505438322,0.0497753448143824
8.580092,5.725942176072234,0.049526930722516
8.582487999999998,5.723756875586453,0.0493021634470777
