Time,Force,Position
6.223096,3.367246930746359,0.1563724078936223
6.225484,3.3716704411197727,0.1561780128094465
6.235032,3.371020710671584,0.1559320368597684
6.237428,3.3718593284327456,0.1558369784983849
6.239815999999999,3.3742807380597424,0.1557179441905835
6.242191999999999,3.3874568255234987,0.1553114664679342
6.244596,3.401656626345652,0.1549386834341764
6.246983999999999,3.417951075712837,0.1545634863879336
6.249364,3.4327552810128035,0.1542936206662533
6.251759999999999,3.448630421499409,0.1539773069568405
6.254147999999999,3.47344513053146,0.1533238722852928
6.256527999999999,3.499051235496429,0.1526573522718654
6.258932,3.5257282756480373,0.1519565596174285
6.26132,3.5508225239338085,0.1512909783458845
6.263704000000001,3.574473749980604,0.150647431869933
6.2661,3.602268947147093,0.1498515576187749
6.268488,3.629272748380664,0.1490781522266785
6.270868,3.650270247374985,0.1485129688265798
6.273272,3.666332379316694,0.1481305431715118
6.27566,3.680252640885125,0.1478365910559258
6.278039999999999,3.69189126245342,0.1476322660706853
6.280436,3.716333884433133,0.1470121450862792
6.282824,3.741056045666567,0.1463858237438469
6.285204,3.766616824661162,0.1456961203561132
6.2876080000000005,3.7922248254840016,0.144938728659169
6.289996,3.808893257761394,0.144453161749125
6.292375999999999,3.827843330038924,0.1438778087170042
6.294772,3.844978293025141,0.1432781053251884
6.29716,3.8585755852273462,0.1426867989871645
6.29954,3.870310546309997,0.1421359874780649
6.301944000000001,3.876690831459454,0.1417685871365793
6.304335999999999,3.883210886235772,0.1413883427873817
6.306716,3.888287918773114,0.1410157099600931
6.309111999999999,3.892433785750677,0.1406662862307123
6.3115000000000006,3.8952291782878814,0.1403827256550986
6.313879999999999,3.8934612908248103,0.1402762323393866
6.316276,3.8890396763092654,0.1402245453196606
6.347332,3.746371257821482,0.1399400752133537
6.349715999999999,3.7436268788282594,0.1397156196492044
6.352112,3.742652283155977,0.1393877266770705
6.3545,3.740327213043335,0.1391223644815837
6.356883999999999,3.7365118988634736,0.138933141442942
6.359287999999999,3.733487980616531,0.1387357760038107
6.361675999999999,3.73595850792964,0.1383462129522839
6.36406,3.739080661548808,0.1379594723051817
6.366456,3.740805118899373,0.1377170993720839
6.368843999999999,3.746346786287669,0.1374502993554329
6.371224,3.75454218072844,0.1371286960274118
6.373628,3.757941977743459,0.1369300202771126
6.376016,3.7591999043852007,0.1368027506469504
6.378392,3.76055037882556,0.1367377151025938
6.380799999999999,3.766556681064811,0.1365604121950971
6.383184,3.78141000405089,0.136060260204689
6.3855640000000005,3.792538664797856,0.1356512752119109
6.387967999999999,3.802037311850742,0.1353379436352161
6.390356000000001,3.814049916329244,0.134989170309995
6.392735999999999,3.825922751180885,0.1346581601788893
6.39514,3.840077226032663,0.1342505735465897
6.397527999999999,3.8491565642049688,0.1339983779692885
6.399903999999999,3.8543242486830582,0.1339173769933801
6.4023,3.863216595400261,0.1337569139335939
6.404688,3.876532452490879,0.1334490989292834
6.407068000000001,3.888917144021717,0.1331600651421843
6.409471999999999,3.8991599651792783,0.1329442983877717
6.411859999999999,3.9154090885760895,0.1325778707100573
6.41424,3.929703333054728,0.132191892993681
6.4166360000000005,3.941623389734612,0.131825006005926
6.419024,3.953822985668217,0.1314319259958896
6.4214,3.973751445333768,0.1308654098152773
6.4238040000000005,3.996613171305514,0.1302272200136972
6.426192,4.023758638023816,0.1294662174599566
6.428571999999999,4.048110608062782,0.1287649132019216
6.430975999999999,4.068039067728332,0.1282165237112831
6.43336,4.088758923326803,0.1276568677004227
6.435744,4.111108792619351,0.1270177623367147
6.438140000000001,4.129733999672787,0.1264521207537841
6.440524,4.146357105979806,0.1259352322942319
6.442904,4.161769507473326,0.1254735573952881
6.445304,4.177042139339987,0.1250250991778568
6.447687999999999,4.192873849714087,0.1245213198808915
6.4500720000000005,4.204189501916156,0.1240965890027496
6.452472,4.2150858452376445,0.1237164107662973
6.45486,4.226121958185994,0.1233215425740553
6.4572400000000005,4.236087135947703,0.1229583581925641
6.459643999999999,4.238323449977466,0.1227603576626945
6.462032000000001,4.241071620686427,0.1225822739452499
6.464411999999999,4.245682122514946,0.1223703986931522
6.466816,4.254296825836296,0.122071061204221
6.469204,4.25504289579884,0.1219419275629515
6.473988,4.247595467178484,0.1218795450956568
6.476376,4.24182337822258,0.1218645713797459
6.478756000000001,4.236330828520396,0.1218250786311109
6.481164,4.232840379564629,0.1217409480761941
6.483547999999999,4.23014132654178,0.121652744412413
6.485928,4.227442273518932,0.1215641717715542
6.488332,4.226093694936442,0.1214229916217947
6.49072,4.218738814114702,0.1214157897804732
6.4931,4.211383933292962,0.1214085879391517
6.4955,4.207102088404277,0.121327663368429
6.497883999999999,4.206544905754705,0.1211822979568537
6.500264,4.204265161612438,0.1210573153935976
6.502668,4.205849849336143,0.1208580655004657
6.505056,4.2065033715000695,0.120674051157752
6.507436,4.213023426276387,0.1203722232501741
6.5098400000000005,4.218891854746647,0.1200618012416722
6.512228,4.22289795209735,0.1197831646951299
6.514607999999999,4.220897747208802,0.1196345477966031
6.517004,4.22075987343981,0.1194535067588501
6.519392,4.216757567804847,0.1193470663748418
6.521772,4.216479924408995,0.1191750447326298
6.524168,4.216714137692342,0.1190240558736393
6.526555999999999,4.21587741578905,0.1189012372755737
6.52894,4.215832089818677,0.1187754067235203
6.531336,4.214576059034805,0.118690100626321
6.533723999999999,4.218115625676684,0.1185154492627241
6.536104,4.220444487505064,0.118380083901202
6.538499999999999,4.227708716386056,0.1181401956704664
6.540887999999999,4.23990831231966,0.1178039350557054
6.543267999999999,4.248755333066489,0.1175631467100529
6.545672,4.253598152320484,0.1174071553460271
6.54806,4.262445173067314,0.1171709718288789
6.55044,4.266077287507809,0.1170564276017299
6.552835999999999,4.270640567508083,0.1169266478241626
6.555223999999999,4.271991041948442,0.1168771337510002
6.557608,4.277578035307113,0.1167906013416615
6.560003999999999,4.287960626091534,0.1166234294603015
6.562391999999999,4.301928109488209,0.1164105239027387
6.564772,4.319899794377717,0.1161201602180158
6.567168000000001,4.346671278185812,0.1156706035465276
6.569552,4.376236258673241,0.115184470657123
6.571935999999999,4.403519599160533,0.1147577559110651
6.574339999999999,4.431175026700163,0.1143589546964299
6.5767240000000005,4.459109993493511,0.1139460830562649
6.579103999999999,4.481178427674472,0.1136320308569683
6.581508,4.504317797042069,0.1133044643820365
6.583895999999999,4.529319497529223,0.1129496450744444
6.586276,4.554321198016377,0.1125977870712365
6.58868,4.56852099883853,0.112437693559021
6.591068,4.585793835593736,0.1122158890484223
6.593448,4.606139708282,0.1119303408729972
6.595848,4.6184771779845954,0.1117979065984289
6.598236,4.635889784366664,0.1115655314194274
6.6006160000000005,4.658377527428203,0.1112412673384552
6.603019999999999,4.681005040116603,0.1109054367117034
6.605408000000001,4.699396033886693,0.1106064363307586
6.607792,4.711920495044391,0.1104087907737429
6.610184,4.723141703589974,0.1101957297652028
6.612572,4.731848954709943,0.1100019378907057
6.614952000000001,4.736831543590798,0.109860522106935
6.61736,4.738369009486259,0.1097466667573798
6.619748,4.740745093142882,0.1095698967843261
6.622128,4.747824226426641,0.1092760144398825
6.624523999999999,4.75397219415062,0.1089967517531828
6.626911999999999,4.765335068180932,0.1086142260476312
6.629292,4.770831409598855,0.108324335056121
6.631696,4.777678225457136,0.1079952351567167
6.634079999999999,4.782942249449581,0.107668883571378
6.636464,4.797145841987472,0.107196224503187
6.638859999999999,4.808555937846027,0.1067598350411705
6.641244,4.818895098517944,0.1063464032234058
6.643623999999999,4.834029856615612,0.1058618885819318
6.64602,4.84464855654125,0.105426623167323
6.648408,4.84832978866786,0.1051038996557061
6.650788,4.850288459301772,0.1047921171440476
6.653184,4.851967590681963,0.1044996790128496
6.655571999999999,4.858721858741628,0.1041222255399067
6.657952,4.864265421987792,0.1037762625503981
6.660352,4.871391777099794,0.1034311355476631
6.662736000000001,4.878378362584936,0.1030984089320293
6.665115999999999,4.889089610309191,0.102725898720404
6.667515999999999,4.903245981018839,0.1023346375005923
6.669903999999999,4.911256279862375,0.1020478453665994
6.672283999999999,4.918195643519273,0.1017823951785507
6.67468,4.9310015397885625,0.1014439639481214
6.677068,4.945949306431127,0.1010654344267698
6.679447999999999,4.958615433073555,0.1007383071404033
6.681851999999999,4.973935286768458,0.1003937668481442
6.684239999999999,4.988463744530442,0.1000556056139014
6.68662,5.003783598225345,0.0997170281285619
6.689024,5.022316257480163,0.0993264901435905
6.691412,5.0401972904289245,0.0989283003226976
6.693792,5.061802985616798,0.0984955722518088
6.696192,5.084619385618171,0.0980324062247583
6.69858,5.108227181552461,0.097566223690549
6.70096,5.132905912673392,0.0970805955955104
6.703355999999999,5.149436471181794,0.0967145953294238
6.705743999999999,5.166898195249974,0.0963391922150658
6.708128,5.178772925959484,0.0960182228285592
6.710524,5.187574620735939,0.0957433633602569
6.712911999999999,5.191440948459781,0.0955346355442386
6.715292,5.192793318758008,0.0953359544908407
6.748747999999999,4.990333833699965,0.0953060389680428
6.751132,4.979813369146552,0.0952564912861117
6.753527999999999,4.969153134966279,0.0952160167469867
6.755912,4.963940124517815,0.0951345706296622
6.758296,4.963150624442766,0.0949733033684805
6.760692000000001,4.965434160300773,0.0947683202950317
6.76308,4.968229552837977,0.0945835301654208
6.765459999999999,4.969022844628765,0.0944252131141884
6.767856,4.9766138345917215,0.094193038978019
6.770244,4.988488565301231,0.0938891957351452
6.772624,5.006090058996272,0.0935294156430213
6.775024,5.023412013437591,0.0931888366412644
6.777412,5.046740270118161,0.0927760481557535
6.7797920000000005,5.078356469038119,0.0922427496439343
6.782192,5.108761963144578,0.0917386482588347
6.78458,5.144614680982847,0.0912011065369302
6.7869600000000005,5.180327629194257,0.0906750089073873
6.789356,5.216971742965445,0.0901471342245448
6.791744,5.249332115990078,0.0896862852392367
6.7941400000000005,5.279690388268294,0.0892578678838325
6.796536,5.307255163867175,0.0888541192834874
6.798924,5.336170413906415,0.0884215754380325
6.801304,5.367367303945792,0.087952370074945
6.803699999999999,5.400054438052389,0.0874500419880525
6.806087999999999,5.42966853622593,0.0869908693166372
6.808468,5.458351468839693,0.0865420028462997
6.810867999999999,5.485451609587621,0.0860905674384591
6.813255999999999,5.514833390335685,0.085605220597045
6.815636,5.538208868844498,0.0851885065844876
6.818035999999999,5.562375743286229,0.0847762159480023
6.820423999999999,5.582306098809649,0.084375434815484
6.822804,5.602515993586792,0.0839587228322971
6.825200000000001,5.619001226124819,0.0835723498309007
6.827588,5.629480156423597,0.0832481765370311
6.829967999999999,5.642100957095652,0.0828975984552769
6.832364,5.646201498102841,0.0826076676540601
6.834752,5.651512743923529,0.0822966357388414
6.837132,5.654030493064882,0.0820036911731459
6.839532,5.66125129183337,0.0816312467950131
6.84192,5.666609759482301,0.0812708678093642
6.8443000000000005,5.671828457504372,0.0809175093161022
6.8467,5.670901083660333,0.0806298651525823
6.849088,5.667971609069875,0.0803626554877764
6.851483999999999,5.65782512742667,0.0801743134703489
6.85388,5.646607710596826,0.0799987065973758
6.856268,5.635110754513261,0.0798391770630004
6.858651999999999,5.625476129549251,0.079668282788275
6.861048,5.608344958278774,0.079592288582854
6.863436,5.59428682294135,0.0794831049646074
6.865816000000001,5.579297522044151,0.0793790167431991
6.868212,5.5654717041322055,0.0793044038246739
6.8706,5.550435181406762,0.0792511151957765
6.872984000000001,5.53311701868118,0.0792325635242428
6.875384,5.523387950060685,0.0791627181695861
6.877772,5.509142823268158,0.0791101328687612
6.880156,5.5016953946478,0.0790043445335243
6.8897200000000005,5.449089280164999,0.0789279275087145
6.892104,5.435867866730869,0.0789114505594066
6.894484,5.432796726655682,0.0787950594694658
6.896888000000001,5.428514881766997,0.0786997564052987
6.899276,5.429168403930924,0.0785624513950622
6.901652,5.432475653147327,0.0784179845846833
6.904048,5.43513127605767,0.078262042809638
6.906432000000001,5.435784798221597,0.0781245283433084
6.908811999999999,5.442863931505356,0.0779060948337206
6.911228,5.446870028856059,0.0777192526654697
6.9136120000000005,5.452226600647122,0.0775036607258486
6.915991999999999,5.454277819079651,0.0772825302128915
6.918396,5.457819281579399,0.0770234110078158
6.920783999999999,5.461640283332867,0.0767460077925669
6.923164,5.458803356541027,0.0765128669973399
6.925568,5.460482487921219,0.0762636290757587
6.927951999999999,5.46230138892827,0.0760084277277213
6.930332,5.460395627696209,0.0757711311671623
6.932736,5.468779909449953,0.0754304895779288
6.935124,5.479306061576973,0.0750632798403432
6.937504000000001,5.493184788890769,0.0746513774442034
6.939907999999999,5.503059314711732,0.0742755951654179
6.942292,5.501061005681054,0.073994335685207
6.944672000000001,5.501344336650513,0.0736802252686022
6.947075999999999,5.502046976500553,0.0733434512407605
6.94946,5.501306594111617,0.0729912434016999
6.951839999999999,5.502568312469097,0.0726231651434277
6.954243999999999,5.504900966013217,0.0722426750997298
6.956631999999999,5.506162684370697,0.071875486025351
6.959012,5.509706042728315,0.0714753770587499
6.961411999999999,5.5098968258991565,0.071119027168445
6.963799999999999,5.513020875376193,0.0707415579318048
6.96618,5.51451491115915,0.0704078676733242
6.968584,5.518662673994583,0.0700703785863902
6.970972,5.527885573509487,0.0696913282368588
6.973352,5.535106372277975,0.0693297560949507
6.975747999999999,5.538183199926769,0.0690072552896832
6.978132,5.545403998695257,0.0686455406992168
6.980511999999999,5.543126150410858,0.0683808212745138
6.982911999999999,5.5407085324996,0.0681241177536826
6.985296,5.534007173841786,0.0679129676194758
6.987676,5.530099311863309,0.0676910888926238
6.990079999999999,5.532989148057,0.067427377314861
6.992468000000001,5.52852220757108,0.0672340782291293
6.994847999999999,5.520702691898385,0.0670829050511608
6.997244,5.51246386734511,0.0669552238433638
6.999632,5.5020831724185575,0.0668500080703631
7.002012000000001,5.4906315423053655,0.066755678481227
7.004415999999999,5.481973408871509,0.0666512818214137
7.006803999999999,5.471964800997294,0.0665736113104703
7.009183999999999,5.463818524242636,0.0664892998447894
7.011576,5.456184104167175,0.0664255308350573
7.013964,5.450039928158933,0.0663263966183752
7.016344,5.443895752150691,0.0662274009545243
7.018739999999999,5.431465734649479,0.0661863838265964
7.021127999999999,5.416102450842072,0.0661624790639782
7.023508,5.403812202967719,0.0661129661325315
7.025912,5.392313351026286,0.0660676120771766
7.028295999999999,5.387100340577823,0.0659644596455761
7.030676,5.38188733012936,0.0658612084656441
7.033071999999999,5.379467816360232,0.0657489098723918
7.0354600000000005,5.376628993710523,0.0656607019708196
7.037839999999999,5.375372962926651,0.065582960764646
7.040236,5.3853381406883605,0.0654185400991412
7.042619999999999,5.39623448400985,0.0652502189239673
7.045,5.410064093637533,0.06506590270385
7.047395999999999,5.424685099198135,0.0648864664328148
7.049783999999999,5.440377039945375,0.0646966646970121
7.052163999999999,5.450993844013143,0.0645453064315865
7.05456,5.4645439143871055,0.0643781945868663
7.056948,5.481446559947846,0.0641736693458967
7.059327999999999,5.499699679948944,0.0639453446982447
7.061743999999999,5.5186044262561,0.0637315987255038
7.064131999999999,5.5348554455107815,0.0635183090575715
7.066512,5.555250435885157,0.0632708887606663
7.068916,5.5795098581255065,0.0630046779298711
7.071304,5.601767179619438,0.0627525540067039
7.073684,5.619089134060758,0.062528787438646
7.076088,5.631335951822606,0.062341139860355
7.078476,5.64558487033087,0.0621423318675376
7.080855999999999,5.659461701786796,0.0619164436153923
7.083252,5.674177151003885,0.061646439029621
7.08564,5.688660282795496,0.0613445783821706
7.08802,5.698347817161355,0.0610650801363979
7.0904240000000005,5.712319092273767,0.0607495864351712
7.092812,5.727640841826539,0.0604141405952464
7.095191999999999,5.745384001006309,0.0600479452724764
7.097588,5.763918556118997,0.0596888234054996
7.099976,5.787947556791736,0.0592790345205807
7.102356,5.813327031904837,0.0588514712427537
7.104752,5.833631370338465,0.0584563834546063
7.107139999999999,5.851002442465896,0.0580754655978256
7.109524,5.866650953100631,0.0576913257366747
7.11192,5.887095061161119,0.0572948568157258
7.114304000000001,5.905676838102052,0.0569025550347665
7.116688,5.9246779239235625,0.0564919477851572
7.119092,5.944889714558573,0.0560665214745676
7.121476,5.969245476313277,0.055614324890873
7.1238600000000005,5.998676374747454,0.0551349492133423
7.126263999999999,6.026384711688935,0.054654876721139
7.128651999999999,6.054744674936472,0.0541911179411285
7.131031999999999,6.081754163743652,0.0537531903630048
7.133428,6.10368851587136,0.0533431810050903
7.135816,6.124412163185568,0.052948731656923
7.138195999999999,6.140200443447164,0.0525749596828776
7.140592,6.150913587029288,0.0522276604488671
7.14298,6.158274155424635,0.0519113297709868
7.145363999999999,6.162841227140648,0.0515968974439833
7.14776,6.161262226990551,0.0513143285514376
7.150143999999999,6.152605989414565,0.0510628938484702
7.152528,6.146883018144771,0.0508024976338059
7.154923999999999,6.140880507621259,0.0505550169263732
7.157311999999999,6.138742428963721,0.0502995358392393
7.159708,6.134602249559765,0.0500533717706928
7.162103999999999,6.130322300528951,0.0498132673904287
7.164496,6.12268977631136,0.0496009451098804
7.166876,6.112775612093631,0.0494088458093717
