Time,Force,Position
9.320436,2.793631696465093,0.1618525842750482
9.32282,2.7963779713161845,0.1618499054663473
9.3252,2.8082035843395823,0.1614568260647043
9.327596,2.8268268955351488,0.160797008701167
9.32998,2.851176969716245,0.1599308719628085
9.332376,2.8781807709498164,0.1589595472896279
9.334772,2.9074662121835253,0.1578467105482185
9.33716,2.935168861551398,0.156778105076494
9.33954,2.9645015246133486,0.1556035310425984
9.341936,2.99532443174252,0.1543124147201193
9.344324,3.0234936118192164,0.1531041923058285
9.346704,3.045284402604324,0.1521012165068176
9.3491,3.0602774952172647,0.1513757655991423
9.351488,3.0756898967107835,0.1505926900614058
9.353868,3.095106499697138,0.1496379291999569
9.356268,3.1080974915636608,0.1489825891793741
9.394496,3.0519140679000825,0.1488113537761821
9.396876,3.051169893795407,0.1487299274415079
9.399272,3.0533589859969275,0.1485462598613818
9.401656,3.052894351145973,0.1484312310054177
9.404052,3.0596467233477678,0.1480274411369044
9.406448,3.0686807355496994,0.1475208034047995
9.408836,3.0787856829382694,0.1469669260712974
9.411216,3.0891701695805605,0.1463785556727002
9.41362,3.1015567569692686,0.1457025126160228
9.416004,3.109287516559085,0.1451653598053056
9.418384,3.117669902454959,0.144636358169462
9.42078,3.1249813531641943,0.144147310270462
9.423168,3.134946530925905,0.1435962265888005
9.425548,3.1469138094340323,0.1429635744259235
9.427944,3.153666181635827,0.1425543399499805
9.430332,3.1599992449570413,0.1422016875300736
9.432728,3.166332308278255,0.1418490351101666
9.435124,3.1768093427191637,0.1413347502629013
9.437508,3.1884970819735696,0.140761952362474
9.439892,3.195389223802225,0.1403492465144205
9.442288,3.1998599560038823,0.1400613634181114
9.444676,3.207683263392316,0.1396291398353394
9.44706,3.209640038168358,0.1393934716458825
9.449452,3.214250539996876,0.1390962340972828
9.45184,3.216579401825257,0.1389040741752342
9.45422,3.2174180195864177,0.1388057297317406
9.45662,3.218116867720719,0.1387238464391327
9.459008,3.216813615108603,0.1387095698313359
9.461388,3.220445729549099,0.1385360878243227
9.463792,3.2327378732813217,0.1381058310880391
9.46618,3.2451697866404032,0.1376629474165687
9.46856,3.2608145055594004,0.1370950063232616
9.470956,3.269381987052509,0.1367640372996214
9.473344,3.2780892381724778,0.136418560530427
9.475724,3.288658820412002,0.1360191289557467
9.47812,3.29843700671861,0.1356299220287471
9.480508,3.3082151930252164,0.1352407151017476
9.482904,3.312918242652352,0.1350276066704606
9.4853,3.3141289474658504,0.1349699551600449
9.487688,3.318924544891602,0.1348276180746963
9.490068,3.329586674929744,0.1345080769558929
9.492464,3.334754359407833,0.1344089604242714
9.494852,3.3435069364981755,0.1342248621446722
9.497232,3.3490467080286024,0.1341640113822201
9.499636,3.3565885803054463,0.1340389442904942
9.502024,3.3614767255298146,0.1339707462488835
9.504408,3.366364870754184,0.1339025482072728
9.511572,3.38047022791985,0.1337631039129148
9.513968,3.38414766833072,0.1337569552241912
9.516356,3.389547670234286,0.1337235168268233
9.518736,3.4030958447503803,0.1334394892241451
9.521132,3.419018207065229,0.1331405702208001
9.52352,3.4368029004996337,0.13280233234094
9.5259,3.4555187594938164,0.1324447279945391
9.528296,3.477167884794195,0.1320166201926426
9.530684,3.500819110840991,0.1315253788428885
9.533068,3.5308959480076174,0.1308245367877993
9.535464,3.5603211588681867,0.1301262879446215
9.537852,3.582948671556587,0.1296108548157762
9.540248,3.609999694618401,0.1289403460524474
9.542648,3.638261422493714,0.1282306479366255
9.545036,3.6706671214887217,0.1274027323659788
9.547416,3.7030728204837287,0.1265900831453325
9.549816,3.736921541717712,0.1257672148515373
9.609544,3.784074744895096,0.1256976628003553
9.611924,3.780397304484226,0.1256938834036312
9.61432,3.7796531303795513,0.125624235040237
9.616704,3.7831926970214313,0.1254317507755101
9.619088,3.7868720332901695,0.1252246392399289
9.621488,3.7902718303051888,0.1250435528099779
9.623872,3.7946027928799855,0.1248438943820883
9.626252,3.7942779276558913,0.1247338536098276
9.628652,3.7940928320586575,0.1246092446659511
9.631036,3.796189376461561,0.124407308346854
9.633416,3.7982859208644633,0.1242068429455913
9.635816,3.8053178323199774,0.1238894986193216
9.638204,3.816214175641467,0.123489518927103
9.6406,3.8339082171351246,0.1229345541650917
9.642996,3.856677395308254,0.1222542579875816
9.645384,3.8751628327348295,0.1217008075070566
9.647768,3.895091292400381,0.1211521346819447
9.650164,3.9215379109843806,0.1204829805029033
9.652552,3.946913594381742,0.1198486274189605
9.654936,3.9661432059129926,0.1193726308568493
9.657332,3.976293479271937,0.1191212700525927
9.65972,3.98029768076477,0.1190259957211928
9.6621,3.984301882257604,0.1189318529332245
9.664496,3.986303983004021,0.1188854227707203
9.666884,3.991239350056633,0.1187764156550168
9.669268,3.996873565243546,0.1186036640574927
9.671668,4.004509881176876,0.118386766951017
9.674056,4.018012729722597,0.1180465213906559
9.676436,4.034728383828232,0.1176176967920237
9.678832,4.050233333120369,0.1172336857603697
9.68122,4.06387595129295,0.1168835081852459
9.683604,4.073654137599557,0.1166134962024843
9.686,4.079707661667051,0.1164096324550511
9.690767999999998,4.077939774203981,0.1162982757971336
9.693164,4.078266535285944,0.1162024639870749
9.700328,4.060391189910791,0.1161773971467657
9.702716,4.056249114648967,0.1160750871562462
9.705112,4.057461715320335,0.1158315779683314
9.707508,4.062818287111396,0.1154854897059242
9.709896,4.067103923715819,0.1151690107970252
9.71228,4.071669099573963,0.1148285081203619
9.714676,4.071298908379495,0.1145905924603004
9.717064,4.071720113117944,0.1143505697030476
9.719444,4.071210152296616,0.114127603085363
9.72184,4.068558321102011,0.1139607238156853
9.724228,4.066977425094044,0.113768072987631
9.726612,4.064605133153159,0.1135774920314477
9.729008,4.063164006772053,0.1133720552558315
9.731392,4.060931484458028,0.1131678912530019
9.733776,4.056696861397586,0.1130042809626134
9.73618,4.05581481352392,0.1127475834555691
9.738568,4.059216506396808,0.1123816560164705
9.740948,4.063549364829474,0.1120075505134527
9.743348,4.067742453635281,0.1116438254508481
9.745732,4.075148348001003,0.1111971346754124
9.748116,4.085068199792339,0.1107344441503601
9.750516,4.094708512329955,0.1103004591233059
9.7529,4.1050004511736295,0.1098821482927643
9.755284,4.113569828524606,0.1094806271458814
9.757688,4.121347809942666,0.1090800885115756
9.760072,4.1257732161739495,0.1087662757692037
9.762452,4.134342593524927,0.1083591009586954
9.764852,4.13969916531599,0.1080292278818814
9.767236,4.139328974121521,0.1077929995593822
9.76962,4.136444825501438,0.1075743764639185
9.772016,4.131279036881218,0.1074207247037493
9.774404,4.127975579380554,0.1072391747646711
9.812628,4.007267880412159,0.1070996507266824
9.834132,3.987018347238252,0.107037924133378
9.836532,3.985715094626136,0.1070162841101314
9.83892,3.987205338693356,0.1069543606480878
9.8413,3.989486978693493,0.106891461403808
9.843696,3.992699784253408,0.1068149590801321
9.846088,3.999637252052437,0.106685408491944
9.848468,4.012581022090716,0.106439919233009
9.850868,4.031019237689049,0.1060577582620292
9.853256,4.0485262877276025,0.1056887354487324
9.85564,4.069665452206653,0.1052090618607443
9.858036,4.084658544819592,0.1048605697741235
9.860424,4.100443033365449,0.104516641652106
9.862808,4.109429823739139,0.1042898618749958
9.865208,4.115483347806633,0.1041125161172161
9.867592,4.1254013037401,0.10387494349646
9.869976,4.137461130046844,0.1035876749042728
9.872376,4.152593992286644,0.1032411762392753
9.874764,4.167587084899584,0.102907939634648
9.877148,4.187795083818855,0.1024729571669762
9.87954,4.214428693857958,0.1019018833822069
9.881927999999998,4.241062303897061,0.1013308095974376
9.884308,4.267835683563024,0.1007590064275165
9.886704,4.290884400989875,0.1002389112286273
9.889088,4.315283592857084,0.0996815031670002
9.891468,4.341684885470709,0.0990951260019701
9.893872,4.367155012524557,0.0985271760702651
9.89626,4.389691873272209,0.0980102298827255
9.89864,4.410598720325782,0.0975676804149679
9.901044,4.437232330364885,0.0970610662587733
9.903428,4.46172407003071,0.0966019676941824
9.905812,4.4882179104429545,0.0961083516901723
9.908208,4.510987088616083,0.0956564134534268
9.910592,4.532685331602574,0.0952202760186878
9.912972,4.55745661052212,0.0947353020776066
9.915376,4.583298824628306,0.0942398775025711
9.917764,4.612074305040687,0.0937120122599211
9.920144,4.640198159147009,0.0931811514123031
9.92254,4.672186445119304,0.0926119850326999
9.924928,4.699239364038988,0.0921169602927048
9.927308,4.718004340719284,0.0917553208373764
9.929704,4.738911187772857,0.0913592253962605
9.932092,4.756744998893375,0.091011492671326
9.934488,4.776580910760308,0.090637983044817
9.936884,4.793204017067327,0.090322503765207
9.939268,4.8101066626280655,0.0899927613218633
9.941652,4.825007207442389,0.0896897995315975
9.944056,4.840047521883571,0.0893782268183375
9.94644,4.853784583712638,0.0890463828585935
9.948824,4.862726048115952,0.088768861087617
9.95122,4.874600778825464,0.0884614791315112
9.953604,4.888617379908251,0.0881220730069504
9.955988,4.903285607297096,0.0877914503505996
9.958384,4.9193043091263,0.0874220036555563
9.960772,4.9311790398358095,0.0871127956653546
9.963152,4.937047468306068,0.0868789412999229
9.965556,4.9399826304701335,0.0866793963272597
9.96794,4.938214743007062,0.0865762014669548
9.97032,4.93151148849138,0.086529911321508
9.97272,4.926670565095255,0.086468486626845
9.975104,4.927975713565241,0.0863239027087346
9.977484,4.929420631662086,0.0861714229038035
9.979884,4.933007420132208,0.0859857871448482
9.982272,4.935383503788831,0.0858267061871968
9.984652,4.940692853751649,0.0856372682153148
9.987048,4.940787297408136,0.0855207475351636
9.989436,4.9439547769976775,0.0853646916757902
9.991832,4.9476341132664166,0.0852299168988752
9.994228,4.9528962414009925,0.085100839634164
9.996616,4.95601649916229,0.0850035585011639
9.999,4.9543411594978375,0.0849502837535635
10.001396,4.951874423900466,0.0848946969601728
10.003784,4.952480724236151,0.08480093357411
10.006164,4.958022391624447,0.0846574338830806
10.008568,4.9698499005057135,0.0844316875486626
10.010956,4.988754646812871,0.084126667628838
10.013336,5.00565729237361,0.0838422688635463
10.015732,5.027262987561483,0.0834667489137062
10.018123999999998,5.049148222003078,0.0830720926811797
10.020504,5.070242060511754,0.0826773051722484
10.0229,5.088402632714235,0.0823129610340406
10.025288,5.1033503993568,0.0819964128994277
10.027667999999998,5.115225130066311,0.0817163890967397
10.030064,5.12723963040268,0.0814276758025604
10.032452,5.1355294684999375,0.0811641099744047
10.034836,5.149965378463306,0.0808284944982275
10.037232,5.158534755814283,0.0805466791775047
10.03962,5.166452506859203,0.0802536480935952
10.042,5.169714430105231,0.0799907586739409
10.0444,5.175257993351396,0.0796877785481826
10.046784,5.183595053276896,0.079366286889621
10.049168,5.187927911709564,0.0790866214542982
10.051564,5.190677978276394,0.0788026298452916
10.053952,5.185279872230696,0.0786106887170579
10.056332,5.175737795065305,0.0784689992730699
10.058728,5.161260350847302,0.0783726089169259
10.061116,5.150787108122132,0.0782361461789567
10.063512,5.141384800583602,0.078085083889326
10.065908,5.134775989724406,0.0779179729128985
10.068296,5.126956474051711,0.0777730572395672
10.07068,5.122070224685211,0.0776039107688462
10.073076,5.117323744945573,0.0774255613447487
10.075468,5.117512632258544,0.0772044536383606
10.077848,5.120914325131432,0.0769441366582734
10.080244,5.127249284310516,0.0766601846431554
10.082631999999998,5.128509106810126,0.0764275027120339
10.085012,5.138568728228323,0.0761263126389837
10.087408,5.14983905446002,0.075804983695141
10.089796,5.161481467744052,0.075509087217824
10.092175999999998,5.173915276961003,0.0752183314145537
10.094572,5.184486755058396,0.0749377393494109
10.09696,5.198643125768043,0.0746454680092961
10.09934,5.215453223530166,0.0743510657183897
10.10174,5.239340558718178,0.0739897910516052
10.104128,5.261225793159772,0.0736452747897903
10.106508,5.283250797228227,0.0732919326419599
10.108904,5.3052758012966805,0.0729436690658604
10.111292,5.3248793957381375,0.0726413954941143
10.113672,5.340478788686761,0.0723744184430912
10.11608,5.3592909871953,0.0720707844089799
10.118464,5.375030149770783,0.071798233654408
10.120848,5.393562809025601,0.0715141145372667
10.123244,5.408231036414446,0.0712574032631464
10.125628,5.415542487123684,0.0710794970839701
10.128012,5.420572297832782,0.0709348248959135
10.130408,5.426673043728519,0.0707769206014994
10.132796,5.425976091452087,0.0706653729407971
10.135188,5.4212749376828215,0.0705860919079491
10.137588,5.420485437607772,0.0704284844678443
10.139972,5.419835707159583,0.0702632777464306
10.142352,5.423050408577369,0.0700751428195234
10.14476,5.425473714062237,0.0698831187687849
10.147144,5.422030486934712,0.069730323312764
10.149524,5.413372353500856,0.0696289824903995
10.151924,5.405785155253637,0.0695152530037601
10.154308,5.3948453818196445,0.0694452949582016
10.156692,5.382974442825873,0.0693786076185537
10.159088,5.368449776779627,0.0693147061657262
10.161476,5.358860477785993,0.0692154217429153
10.163856,5.344056272486026,0.0691671173883165
10.166256,5.32939183681292,0.0691103955377976
10.16864,5.311002738900699,0.0690679682768645
10.17102,5.291542705801842,0.069037407598575
10.17342,5.277297579009314,0.0689551060046363
10.175808,5.264402926657149,0.0688438357196939
10.178188,5.254301770984316,0.0687212538917088
10.180588,5.243921076057764,0.0686148170155261
10.182976,5.238056439303242,0.0684977921961663
10.185356,5.230561788854641,0.0684259582975235
10.187752,5.221996203219401,0.0683658024428618
10.19014,5.207564084971772,0.0683433868216003
10.192524,5.193131966724143,0.0683205283539707
10.19492,5.182424510715627,0.0682835548154167
10.197308,5.174790090640167,0.068219206054577
10.199704,5.171020102430679,0.0681323962613622
10.2021,5.1772606179532765,0.0679699250421081
10.204484,5.181359263102597,0.0678310987796996
10.206868,5.192115836797225,0.0676609787426244
10.209264,5.197005877879462,0.0675277925972378
10.211652,5.20911292601445,0.0673312307209325
10.214032,5.225084406015411,0.0671151278721723
10.216428,5.245991253068985,0.0668685824534367
10.218816,5.271181840869112,0.066578600993598
10.221196,5.297443363855878,0.0662817333214637
10.223592,5.324636052402422,0.0659844234486735
10.22598,5.35010617945627,0.0656876825778066
10.228376,5.378928881696892,0.0653505841742301
10.230776,5.407379496885178,0.0649887758339591
10.233164,5.4390429176333805,0.0645988587793786
10.235544,5.47070633838158,0.0642100484039852
10.23794,5.504371859876199,0.0638050630920632
10.240328,5.53617505025126,0.0634050376430311
10.242712,5.564533117640929,0.0629994437650772
10.245108,5.591960019470819,0.0625984083011784
10.247496,5.614591323874957,0.0622207159940012
10.249876,5.626700267867815,0.0618890522141893
10.25228,5.638157585554613,0.0615427671106611
10.254668,5.645098845069381,0.0612039065507005
10.257048,5.655113140517203,0.0608406391185543
10.259444,5.661123234472193,0.0605061484170868
10.261832,5.6644796013747065,0.0601731249600197
10.264212,5.662900601224609,0.0598671958329296
10.266612,5.657037860327957,0.0596004277982769
10.268996,5.650895580177586,0.059350505235877
10.271376,5.641959803347878,0.0591059000621453
10.273772,5.636097062451226,0.0588414769422971
10.27616,5.629954782300855,0.0585928361521722
10.27854,5.622462027710123,0.0583685950858239
10.280936,5.61017367569364,0.0581600836815917
10.283324,5.597233697371099,0.0579375370390229
10.28572,5.588297920541391,0.0576942989702106
10.288116,5.586439381137573,0.0574123978790228
10.2905,5.590167835092425,0.0571222599742137
10.292884,5.597109094607194,0.0568083135184942
10.295288,5.604981519681739,0.0564917941584212
10.297672,5.618440938114953,0.0561655255119497
10.300052,5.633762687667726,0.0558365521297804
10.302448,5.652389790579031,0.0555265038129335
10.304836,5.673018994236752,0.0552094277444781
10.307216,5.690435392334558,0.0549165386773516
10.30962,5.708643186365283,0.0546317888921063
10.312008,5.728433772261842,0.0543584106824681
10.314388,5.752228559651236,0.0540666163761259
10.316784,5.769505188122183,0.0537816679069732
10.319176,5.791577414018882,0.0534862206535946
10.321556,5.80536169767619,0.053242411268555
10.323951999999998,5.817283650213943,0.0530010158447771
10.32634,5.825341170885724,0.0527693866048715
10.32872,5.83498148342334,0.0525501364171595
10.331116,5.844342256707235,0.05234560990978
10.333504,5.851700929244714,0.0521523015042515
10.335888,5.849840493983026,0.0520105081590538
10.338284,5.844255396482226,0.0518720604915353
10.340668,5.834526327861731,0.051758053057043
10.343052,5.823726324054598,0.051651301359053
