Time,Force,Position
9.650608,2.6351511407136816,0.1646939688023897
9.652988,2.642320925938188,0.1644421294104423
9.655396,2.6499100200432744,0.164134352697514
9.65778,2.656847487842304,0.1638282294664568
9.66016,2.6643440341487734,0.1634473256903671
9.662564,2.6769157171347158,0.1628280444765686
9.664952,2.691629270493934,0.1620984355290375
9.667332,2.704061183853016,0.1614857606808137
9.669736,2.716772636465818,0.160814761566574
9.672124,2.7312066505713166,0.1600879729476587
9.674504,2.749784635796509,0.1591840403155664
9.676908,2.776510793634229,0.15789037840666
9.679296,2.804168117031727,0.1565732069579482
9.681676,2.830102878936529,0.1553110194353346
9.684072,2.859529985654968,0.1538454644418141
9.68646,2.88737430050757,0.1524499977100609
9.68884,2.917220716106588,0.1509895120657409
9.691248,2.948417606145966,0.1494123979861261
9.693632,2.9777521650657865,0.1479057076999824
9.696016,3.0054567102915284,0.146542606675879
9.698412,3.0300882195842145,0.1453729645101337
9.7008,3.043638289958178,0.144687846010469
9.70318,3.0550464899588645,0.1441038932369945
9.705576,3.0671063162656083,0.1435347124647844
9.707964,3.0787468336917714,0.1430264091307792
9.710344,3.090387351117936,0.1425305573581318
9.71274,3.1071030052235717,0.1418667636971152
9.715128,3.13462055899421,0.1408573022279885
9.717508,3.170798142056573,0.1396049387367332
9.7199,3.209908991425132,0.138287441580565
9.722288,3.2422221426215216,0.1372061927897997
9.724668,3.26946015713844,0.1363180656967433
9.727072,3.2952079275881383,0.1355191037862405
9.786808,3.42316848029031,0.1355028635907808
9.789188,3.4199103487600206,0.1354635518185634
9.791592,3.414929655737035,0.135453707859866
9.79398,3.417677826445997,0.1352377769246301
9.79636,3.4185636660354004,0.1350669335334072
9.798756,3.418378570438166,0.1349330052421689
9.801144,3.421126741147128,0.134718550584404
9.803524,3.4221523503633926,0.1345330042543296
9.805928,3.42117585883324,0.1344052090067257
9.808316,3.426624978422918,0.1340505279739955
9.810696,3.438220169878708,0.1334953781462438
9.813096,3.4482325694686624,0.1329469113749992
9.815484,3.4649028976039244,0.1322232225547918
9.817864,3.483575326485603,0.1314453191499652
9.82026,3.503877769061361,0.1305824395130953
9.822648,3.521898571636982,0.1298133461392964
9.825032,3.541362396451579,0.1290610715688026
9.827428,3.5610585386916527,0.1283736346076872
9.829816,3.582756781678144,0.1276451075307919
9.832196,3.605386190224413,0.1269014075807405
9.834592,3.62852745544988,0.1261871034977117
9.83698,3.643520548062819,0.1257127537456715
9.83936,3.664659712541869,0.1250721252227094
9.841756,3.679280718102472,0.1245716246711207
9.844144,3.694041493289935,0.124057903493746
9.846528,3.712294613291032,0.1234268791966928
9.848924,3.729337028478632,0.1228446884955751
9.851312,3.750104105905345,0.1221946121145318
9.853692,3.773944219265113,0.1214583103346561
9.856088,3.7993671244907175,0.120729084214778
9.858476,3.819714893036849,0.1201298378650433
9.860856,3.843507784568374,0.1194794451890943
9.913432,3.8669720191600656,0.1190734127624685
9.91582,3.869113889533343,0.1190138838103783
9.918204,3.8704643639737015,0.118958366961562
9.9206,3.874608335093396,0.1188516136139707
9.922988,3.8814060332655633,0.1187081666199273
9.925372,3.885550004385257,0.1186014132723359
9.927768,3.8926272418111463,0.1184298741651145
9.930156,3.8989130833041177,0.118263184085312
9.932536,3.903057054423812,0.118158501554563
9.937328,3.9008226362519176,0.1181564202888526
9.939708,3.903104276252056,0.1180861006340953
9.942112,3.915955498491718,0.1177405968677973
9.9445,3.926804619984964,0.1174405105561915
9.94688,3.937234432597629,0.1171738976426433
9.949284,3.945662144463877,0.116950835990424
9.951672,3.955160791516763,0.1166968316333397
9.954052,3.9647992081965096,0.1164343948821095
9.956456,3.974297855249396,0.1161898273330162
9.958844,3.980211609690029,0.1159952685628168
9.961228,3.98798769525022,0.1157715761472727
9.963624,3.9977658815568256,0.1155069195562497
9.966012,4.006333363049935,0.1152819671869361
9.968396,4.01704271491632,0.1150036891956841
9.970792,4.0258897356631484,0.1147580100880255
9.973176,4.035947461223476,0.1144699752024231
9.97556,4.047215891597302,0.1141460214280041
9.977956,4.0604864227175455,0.1137836486653328
9.98034,4.071242996412174,0.1134411456030479
9.982724,4.086562850107077,0.112963123354602
9.985128,4.0989494374957856,0.1125405063793505
9.987512,4.106680197085601,0.112197184032416
9.989892,4.1110583814886414,0.1119534575466384
9.992292,4.118509601824737,0.111645011271106
9.99468,4.132386433280664,0.1111848794262662
9.99706,4.1536200414162,0.1105655492511223
9.99946,4.176064354365236,0.1099128564504993
10.001848,4.194784005075158,0.109315696629533
10.004228,4.210710159105745,0.1087617795435904
10.006628,4.232363076121862,0.1081186843886354
10.009012,4.252805288324479,0.1075194850155457
10.011396,4.269103529407405,0.1070074343543672
10.013792,4.287823180117328,0.1064248008246864
10.01618,4.3045407300808325,0.1058846866803478
10.018564,4.31925617929792,0.1053777201690463
10.02096,4.335414650753984,0.1048801651761797
10.023348,4.346358215903717,0.1044911095550617
10.073524,4.354506388516244,0.1042521011443966
10.075904,4.359953612248053,0.1041925791064056
10.0783,4.36167617374075,0.1041802696266064
10.080688,4.36726316709942,0.1041113321775257
10.083072,4.372570621204369,0.1040642942291536
10.085468,4.380019945682597,0.1039711578366983
10.087856,4.387189730907102,0.1039000594211665
10.090236,4.394639055385329,0.103805695326046
10.092632,4.402647458370996,0.103666978834176
10.09502,4.407722595050469,0.103574264414839
10.097404,4.41386866691658,0.1034587715201075
10.0998,4.416941702849635,0.1034002159408392
10.102188,4.417640550983935,0.1033444180276312
10.104572,4.419689873558596,0.1032435195983872
10.106968,4.419457556133118,0.1031999730958511
10.109356,4.4172231379612255,0.1031911648696377
10.111736,4.417130590162607,0.1031363127601207
10.114132,4.42262503572266,0.1030120635843329
10.142812,4.375328271202678,0.1029655230420884
10.1452,4.369556182246773,0.1029251314209985
10.147584,4.369138769224062,0.1027717224241802
10.14998,4.369372982507408,0.1026286925104335
10.152364,4.364532059111282,0.1025764525366757
10.154748,4.3603899838494575,0.1024682582873231
10.157144,4.363325146013522,0.1022366193391011
10.159528,4.363327041871392,0.1020497756073912
10.161912,4.356159152504755,0.1019314467728985
10.164308,4.3537868605638685,0.1017465976266128
10.166696,4.3555585397426775,0.1014863332728612
10.16908,4.3597516285484845,0.1011597223847165
10.171476,4.363013551794513,0.100842158539022
10.173868,4.36655501429426,0.1005030785264751
10.176248,4.368793224181893,0.1001408659690689
10.178648,4.374895865935499,0.0997271090954361
10.181036,4.38407154362216,0.0992594300877254
10.18342,4.38845162388307,0.0988541683058784
10.185816,4.39283170414398,0.0984517806501119
10.188208,4.400564359591666,0.0979736006586387
10.190588,4.4107184246663484,0.0974323335112165
10.192984,4.418590849740895,0.0969464043729296
10.195372,4.424600943695884,0.096485178101831
10.197756,4.429959411344815,0.0960120456470335
10.200152,4.443466051606274,0.0954056926075484
10.20254,4.455482447800513,0.0948527852867438
10.204924,4.4607011458225845,0.0943955191640699
10.20732,4.469272419031431,0.0938667254115853
10.209712,4.480497419292753,0.0933174627268179
10.212092,4.489068692501599,0.0927923477612954
10.214488,4.490702497911418,0.0923644557841732
10.21688,4.490334202574818,0.0919647824701919
10.21926,4.493038943171274,0.0915158281324183
10.22166,4.493881352648175,0.091084187582225
10.224048,4.498448424364188,0.0906170912392171
10.226432,4.497800589773868,0.0902386486401611
10.228828,4.498735547049384,0.0898669593864216
10.231212,4.504326332123792,0.0894490435977774
10.233592,4.508706412384703,0.0890621966914645
10.235996,4.513877888578531,0.0886808750039808
10.238384,4.517698890332,0.0883407233240263
10.240764,4.522451057645247,0.0879918363821028
10.243168,4.527854851264552,0.0876568122908068
10.245552,4.530977004883719,0.0873664273560477
10.247932,4.527021921076998,0.0871756722181879
10.250328,4.525068938016694,0.0869583189864319
10.252716,4.526840617195504,0.0867085325668943
10.255096,4.529915548986427,0.0864860213357443
10.257492,4.536854912643325,0.0862255137132877
10.25988,4.545237298539199,0.0859816698173868
10.26226,4.560417382607242,0.0856649669223433
10.264656,4.577831884847178,0.0853645097661847
10.267044,4.594827078206534,0.0850969669800874
10.26944,4.618340430484339,0.0847824279425022
10.271836,4.640363538694924,0.0845182501244663
10.27422,4.663597351719008,0.0842245503990282
10.276604,4.684037668063758,0.0839562070909906
10.279,4.706340315528064,0.0836782030842323
10.281384,4.729574128552148,0.0833941069190155
10.283768,4.750526301576095,0.0831548586019068
10.286172,4.77226987053296,0.0829195932892743
10.28856,4.794153209116685,0.0826762874289691
10.29094,4.814965612513772,0.0824504959111132
10.293336,4.842855253336747,0.0821417370159059
10.295724,4.877542592331892,0.0817697477368654
10.298104,4.910367600207478,0.0814125777585537
10.300508,4.9373260754706765,0.0811120242729195
10.302896,4.96069965812162,0.0808307215678275
10.305276,4.9779271689064535,0.0806283257699269
10.307672,4.993292348571732,0.0804398871442339
10.310056,5.007726362677229,0.080261735960831
10.31244,5.025792491223225,0.0800140191876023
10.314836,5.043067223836302,0.079764274717625
10.317224,5.05340448865035,0.0795852147610056
10.319604,5.06215896159856,0.0793998678521671
10.322,5.073846700852966,0.0791891898136355
10.324388,5.082740943428039,0.0789949644169388
10.326784,5.088190063017718,0.0788074020156111
10.32918,5.090194059622004,0.078624160476291
10.331568,5.092617365106872,0.0784140270529224
10.333948,5.095599749099179,0.0781693801009319
10.336352,5.100025155330462,0.0779414687714098
10.338736,5.105521496748385,0.0776998051313878
10.341116,5.107944802233252,0.0774947378902867
10.34352,5.105572510292366,0.0773258319951992
10.345908,5.105202319097899,0.0771379689945054
10.348288,5.111117969396401,0.0768752141611339
10.350688,5.117173389321764,0.0766031757414651
10.353072,5.124579283687486,0.0762981453731679
10.355456,5.13147332137401,0.0759719171908399
10.357852,5.132500826448145,0.075693187161752
10.36024,5.129663899656306,0.0754455880509636
10.36262,5.126966742491325,0.0751893634937917
10.36502,5.126690994953344,0.0748877173471499
10.367404,5.124413146668943,0.0746025904493608
10.369788,5.121064363197905,0.0743326016280397
10.372184,5.121440241965982,0.0740424126475635
10.374572,5.124330078159672,0.0737562452198752
10.376952,5.132015511779115,0.0734380332316984
10.379352,5.139840715025418,0.0731122362504615
10.38174,5.147246609391139,0.0728146909675499
10.38412,5.153489020771606,0.0724849473346071
10.38652,5.160010971405793,0.0721402292487384
10.388908,5.165741526107062,0.0717925400537143
10.391288,5.172543015994968,0.0714320448124477
10.393684,5.179204736256015,0.0710820011071294
10.396072,5.187449248382898,0.0707458706036078
10.398452,5.198487257189116,0.070399607638308
10.400852,5.2101768923013925,0.0700659027803827
10.40324,5.224520254466142,0.0697311229643388
10.40562,5.244730149243285,0.0693562532196922
10.408016,5.2625186343934285,0.0690214414056262
10.410404,5.28109851547649,0.0686929981377233
10.412788,5.297256986932554,0.0684045405123312
10.415184,5.320492695814508,0.0680593717193119
10.417572,5.33893280727071,0.0677390570862609
10.419952,5.356441753167133,0.0674238077272198
10.422352,5.371017432757361,0.0671286257902454
10.42474,5.385313573093868,0.0668534666750673
10.427136,5.397048534176518,0.0666254504194879
10.429532,5.405710459326112,0.0664238439398923
10.43192,5.409809104475433,0.0662845586724429
10.4343,5.411626109624615,0.0661772258702503
10.436704,5.413163575520077,0.066086502182806
10.439092,5.411488235855623,0.066030463764007
10.441472,5.40981289619117,0.065974578659908
10.446256,5.390073323838592,0.0659516994416858
10.45342,5.355994181037001,0.0659447876468095
10.455804,5.346869516894322,0.0659139951755995
10.4582,5.336813687191863,0.0658859761221763
10.460588,5.331832994168877,0.0658187056770136
10.462968,5.322568560399337,0.0657949978933418
10.465372,5.319170659242188,0.0657377228534739
10.46776,5.317914628458316,0.0656589735089617
10.47014,5.319871403234357,0.0655483477567794
10.472536,5.317963746144426,0.0654566917874362
10.474924,5.320339829801049,0.0653224284437671
10.477304,5.325928719017588,0.065156007298379
10.479704,5.340736716033295,0.0649182714988887
10.482092,5.358477979355195,0.0646652635262269
10.484472,5.375427846744177,0.0644068809669376
10.486876,5.398523785999271,0.0641014144194325
10.48926,5.418826228575028,0.0638041793565932
10.491644,5.442853333389901,0.0634957823488646
10.494036,5.467020207831632,0.0631785782943626
10.496424,5.488253815967169,0.0628791270235592
10.498808,5.509627193729566,0.0625708938388573
10.501204,5.528346844439487,0.0622642691792605
10.503592,5.544784855149272,0.0619874173371625
10.505972,5.562573340299415,0.0616866362850607
10.508368,5.578779033583724,0.0613792694033196
10.510752,5.594333100561973,0.0610586694825538
10.513148,5.610958102726861,0.0607326615417284
10.515544,5.624649838585554,0.0604228553094304
10.517932,5.635268538511191,0.0601361088062965
10.520312,5.650170979183383,0.0598117405887726
10.522716,5.663490627989738,0.0594789467217693
10.525104,5.676018880863176,0.059142363452809
10.527484,5.681749435564445,0.0588361939205511
10.52988,5.684966032840099,0.0585212950124927
10.532268,5.69060403974275,0.0581742290078815
10.534652,5.692377614779427,0.0578426044205146
10.537048,5.69815539130894,0.0574907525548635
10.539436,5.708077138958145,0.0571157541815291
10.54182,5.71920959142085,0.0567250807550405
10.544216,5.729550647950636,0.0563271832054084
10.546604,5.74231311410742,0.0558989900658601
10.548984,5.754144414704424,0.0554709341940195
10.55138,5.765044549741651,0.055041958397554
10.553768,5.77459421033852,0.0546380186719144
10.556148,5.779999899815694,0.0542602344842639
10.558544,5.787267920412424,0.0538809610513869
10.560932,5.79160267470296,0.0535147096985992
10.563312,5.79393532824708,0.0531556917403166
10.565712,5.794265881044783,0.0528036752409656
10.5681,5.79031269309593,0.0524848779634653
10.570496,5.787802527386054,0.0521873565771826
10.572892,5.786223527235957,0.0518897909926059
10.57528,5.787158484511473,0.0516040762972567
