Time,Force,Position
8.236708,2.252087984171084,0.1699746495986659
8.239112,2.333316538434321,0.1680384133541003
8.241496,2.4081213774355965,0.1662004382376591
8.243876,2.4825088034141607,0.1639565884631584
8.286892,2.639913350937106,0.1630855718610769
8.291684,2.6604405275068648,0.1630507979333751
8.29406,2.677059842098145,0.1627099744604976
8.296464,2.689302868144254,0.162514947573374
8.298848,2.7011738071380256,0.1622671878187303
8.301228,2.7125328894525995,0.1619970397657999
8.303632,2.7257543028867293,0.1616513453538442
8.30602,2.7405585081866963,0.1612723118358696
8.308396,2.7573648142330804,0.160800638216847
8.3108,2.772588328413628,0.1603649210719658
8.313188,2.79032580001979,0.1598603498925274
8.315568,2.8105772290515665,0.1592706795758803
8.317972,2.8397682266287894,0.1582455159566021
8.320356,2.8698903897657893,0.157194900613706
8.322736,2.897778134730896,0.1561980129342018
8.32514,2.9231519222703883,0.1552993802871843
8.327528,2.9460117523842646,0.1544965720747796
8.329903999999999,2.973714401752137,0.1534252188205384
8.332316,2.997320301828559,0.1524693942871997
8.3347,3.0180401574270284,0.1515404937518509
8.337083999999999,3.0348955811595246,0.1507877187117258
8.339492,3.0569659111983527,0.1498302790592186
8.34188,3.0720987734381526,0.1491543868838994
8.34426,3.089885362730427,0.1484069839826866
8.346672,3.110325679075176,0.1475849261073956
8.349064,3.130486456166205,0.1467982413873718
8.351444,3.1526493340036508,0.1459508621106039
8.353856,3.1743003551618987,0.1450866343013432
8.356244,3.1912955485212557,0.1443589884987037
8.35862,3.207080037067113,0.1436875582330168
8.361036,3.2222128993069123,0.1430185511983297
8.36342,3.236322048188317,0.1423010840761738
8.423168,3.0932815426481954,0.1419382312068907
8.425572,3.090302950371626,0.1418696576902951
8.427956,3.0949134522001445,0.1415678488786816
8.430336,3.0985927884688835,0.141291290056117
8.43274,3.0962658224983723,0.1412298053994717
8.435128,3.098734453953613,0.141009893751664
8.437504,3.1006440069014127,0.1408596862318651
8.439907999999999,3.105719143580885,0.1406661923283738
8.442296,3.1162415039921667,0.1403250746055638
8.444676,3.1224801236568944,0.1401638964194744
8.447072,3.127508038508124,0.1400645904751729
8.45184,3.1353747760090616,0.1400518302346192
8.454244,3.1419854827261267,0.1399373981547981
8.456628,3.150598290189609,0.1397549472069424
8.459008,3.157860623212732,0.1396510392141917
8.461412,3.163772481795496,0.1396211400348999
8.46618,3.1751768900804445,0.139609883807111
8.468584,3.1874671379547967,0.139412971986964
8.470972,3.202783199933962,0.1392001226457662
8.473352,3.218611118592324,0.139015342605041
8.475748,3.2293639005712134,0.1390114377277202
8.478136,3.2441208840429376,0.1388785030486756
8.480516,3.266466961619748,0.1385276830873227
8.482912,3.2889528088234186,0.1381673805873607
8.4853,3.3149310008407253,0.1376642306999435
8.48768,3.3413285017386127,0.1371256235810685
8.490076,3.3640013403973863,0.1366933691495429
8.492464,3.393099790175992,0.1360358009275365
8.494844,3.4232691751412347,0.1353340832479791
8.497248,3.4525073945467,0.1346564610738933
8.499636,3.4856100458181385,0.1338764165931978
8.502016,3.511495690036828,0.1333371053406042
8.50442,3.5350996942553814,0.1328936147094797
8.506808,3.557632763287294,0.1324819831520184
8.509188,3.5855205082524013,0.1318809772847543
8.511584,3.614898497284727,0.1312071583691273
8.513972,3.6496311622502455,0.1303498089778626
8.516348,3.6755640282971775,0.1297585576725011
8.518744,3.695537813933104,0.1292615526074857
8.521128,3.7142083469569127,0.1287542075861692
8.523524,3.733577728115024,0.1281750388313051
8.525924,3.7501536125938,0.1276687198260001
8.528312,3.7646348485275416,0.1271662330384803
8.530692,3.7781849189015047,0.1266873867530225
8.533096,3.788661953342413,0.1263036012408025
8.535484,3.796345491103986,0.125980567916819
8.53786,3.802026928119142,0.1257078347383272
8.540256,3.8035643940146047,0.1255572899955269
8.54264,3.806172795096706,0.1253747230289674
8.54502,3.811202605805804,0.1251021003726798
8.547416,3.8115765887160102,0.1249233529566249
8.549804,3.8185159523729086,0.1245389007753332
8.55218,3.827085329723887,0.1240704025929395
8.554584,3.83928682151536,0.1234690136194062
8.556972,3.848555047000639,0.1229427145032431
8.559352,3.8548900061797218,0.122485965188264
8.561755999999999,3.8581519294257496,0.1221127488498525
8.56414,3.8656975934183313,0.1216190852228844
8.56652,3.8778990852098048,0.1210383699762092
8.568923999999999,3.889681268120698,0.1204973589834697
8.571308,3.899833437337512,0.1200376887644508
8.573692,3.909985606554325,0.1195790232989675
8.576084,3.9183679924502,0.1192177687218918
8.578472,3.927541774278992,0.1188541475714052
8.580868,3.9376467216675626,0.1184758653912687
8.583264,3.9476118994292726,0.1181083307769736
8.585652,3.9585082427507614,0.1177187175335718
8.647784,3.8340777774011223,0.1177086430655983
8.657335999999999,3.824488478407489,0.1176880477161179
8.659716,3.824628248034349,0.1176752621137606
8.662112,3.8302152413930193,0.1175785090818776
8.664496,3.8426924807224743,0.1174046601563987
8.666879999999999,3.8607567134106,0.1171381922711257
8.669272,3.876818845352309,0.1169156495551365
8.67166,3.8933928339732153,0.1167147567013558
8.67404,3.9108979881539,0.1165003689133583
8.676444,3.9336180486409167,0.1161575783929851
8.678828,3.959550914687849,0.1157361829706591
8.681208,3.991350313347173,0.115210048651778
8.683604,4.024639956073715,0.1146364414792977
8.685992,4.058209138053978,0.1140531911420109
8.688388,4.090847154474462,0.1134868037895266
8.690784,4.12162283977539,0.1129377815092039
8.693168,4.152678064330036,0.112359552385619
8.695548,4.186294468138543,0.1116993912743516
8.697952,4.211250842655324,0.1111985893735087
8.700336,4.237697461239323,0.1106328625716911
8.702716,4.257625920904875,0.1101613849126255
8.705119999999999,4.275459732025393,0.1096752900644412
8.707508,4.289988189787378,0.1092094775020769
8.709888,4.300000589377331,0.1088058203555631
8.712292,4.306428096355032,0.1084514175363855
8.714676,4.306337444414284,0.1081967401201292
8.743344,4.1243673933871,0.1080971287864804
8.748128,4.095132965697373,0.1080728825148894
8.750512,4.090526255584594,0.1078753684167076
8.752892,4.086431402151012,0.1076993808936672
8.755296,4.086573067635741,0.1074949695464684
8.75768,4.088437294613168,0.107276094531888
8.76006,4.091512226404092,0.1070224534442143
8.762456,4.099103216367048,0.106717254835545
8.764844,4.1085565374495605,0.1063877079335217
8.767224,4.115728218531936,0.1061201999449092
8.769627999999999,4.12983736741334,0.1057339713946481
8.772016,4.153957020026829,0.1051722397917763
8.774396,4.180870169319652,0.1045735748121856
8.776792,4.206572613798977,0.1040080404806457
8.77918,4.237070655704054,0.1033615454304192
8.78156,4.273574999848381,0.1026034260402308
8.783956,4.3015118624996,0.102034715011576
8.786344,4.323023114030987,0.1016157775026154
8.78874,4.345977387801351,0.1012105482424644
8.791136,4.365718856011799,0.1008744049058807
8.793524,4.382107749035471,0.1006250813601858
8.795904,4.403152469858036,0.1003167695509462
8.7983,4.417631809933908,0.1001654524176092
8.800688,4.431831610756061,0.1000356191075926
8.803068,4.443237914898878,0.0999411337616249
8.805472,4.457717254974751,0.0997926167677906
8.80786,4.470985890237124,0.0996788658470498
8.81024,4.484534064753219,0.0995463778171223
8.812636,4.498873635202231,0.0994160135602136
8.824576,4.536256235504484,0.0993427041947282
8.826972,4.5456604389008834,0.0992954563990125
8.82936,4.553202311177727,0.0992692486367002
8.83174,4.567169794574403,0.0991203953249237
8.834144,4.586631723531131,0.0988617715995484
8.836532,4.603719464689105,0.0986032607427513
8.838912,4.624159781033854,0.098273117931679
8.841315999999999,4.644879636632323,0.0979223904583298
8.8437,4.664156469991816,0.0975666199283491
8.84608,4.683061216298973,0.0971786346231848
8.848484,4.7045271418599865,0.0967235080378483
8.850868,4.729857499286974,0.0962233795517019
8.853248,4.753185755967544,0.0957598761733438
8.855656,4.776374243021255,0.0953057534504643
8.858039999999999,4.795558528582132,0.0949099606590311
8.86042,4.811157921530754,0.0945416336663984
8.862824,4.823172421867124,0.0941987335000115
8.865212,4.834535295897436,0.0938466778134144
8.867592,4.850042141047443,0.0934239130717741
8.869988,4.866899460637809,0.0929643587072322
8.872376,4.876167686123088,0.0925893724222001
8.874756,4.878917752689918,0.0922793679382007
8.87716,4.878874322577414,0.091995865819793
8.879544,4.880041597278408,0.0916860951503462
8.881924,4.876925131232848,0.0914513877113829
8.884332,4.8756709963068445,0.0911997527532282
8.886716,4.874556631007701,0.0909395919729061
8.8891,4.874513200895197,0.0906622081275795
8.891496,4.870325799662997,0.0904458566031703
8.893884,4.866138398430799,0.0902287274125824
8.89626,4.857015630145988,0.090071207486856
8.898664,4.841374702942729,0.089970109949313
8.901052,4.82000701275394,0.0899282168049337
8.903428,4.799198401072591,0.0898463192669112
8.905832,4.779600494204741,0.0897362867109115
8.90822,4.761073522523532,0.0896073473657033
8.9106,4.746271213081434,0.08944469710546
8.913003999999999,4.72932703326606,0.0893179059683551
8.915392,4.714384954197101,0.0891632959089765
8.917772,4.697440774381726,0.0890332539396352
8.920176,4.68715452311166,0.088836522912712
8.92256,4.681384330013627,0.0886091709455664
8.92494,4.67654530247537,0.0883726453226255
8.927344,4.671426735683393,0.0881570192937884
8.929728,4.667518873704914,0.0879136563847138
8.932112,4.661329371726299,0.0877150656050999
8.934512,4.6528582297475465,0.0875608706052664
8.9369,4.645318253328573,0.0873991813025225
8.93928,4.641642708775571,0.0871971882212098
8.941676,4.640620891275044,0.0869828573785648
8.944064,4.641601174520936,0.0867423119981188
8.946444,4.6501705518719145,0.086432801034032
8.94884,4.668331124074395,0.0860300663540044
8.951228,4.686212157023155,0.0856487153088027
8.953612,4.70767808258417,0.0852514561633612
8.956008,4.7327289007574365,0.0848390063837291
8.958396,4.75992158930398,0.0844006604923843
8.960776,4.7921894145299975,0.0839024498756268
8.963172,4.822315369382736,0.0834425736676359
8.965556,4.851882245728033,0.0830179408132376
8.967936,4.87665352464758,0.0826396685911645
8.970344,4.895418501327876,0.0823276086985708
8.972732,4.917116744314367,0.0819883418073984
8.975112,4.934671016181164,0.0817043803291338
8.977508,4.949803878420963,0.0814699427270815
8.979896,4.969220481407317,0.0811736213709167
8.982276,4.987566149207032,0.0808904804923754
8.984676,4.999905514767497,0.0806749013624553
8.987064,5.011313714768184,0.0804671467177927
8.989448,5.020580044395593,0.0802924590988069
8.991844,5.031429165888838,0.0801239435446311
8.994232,5.037482689956332,0.0799988887870781
8.996612,5.037809451038295,0.0799221635944025
8.999016,5.039207147306898,0.0798303350299698
9.0014,5.037531807642443,0.0797755737848761
9.010948,4.999822446258225,0.0797651972604199
9.013344,4.990977321369265,0.0797382693826356
9.015732,4.98585685871942,0.0796885844763074
9.018112,4.988093172749184,0.0795460639370876
9.020516,4.990329486778947,0.079404989960258
9.022904,4.997780707115042,0.0792021784235939
9.025284,5.0060705452123,0.0789448068375596
9.027688,5.01235828256314,0.0787100447618371
9.030072,5.023860926220314,0.0784149867319557
9.032452,5.039647310624039,0.0780614732296733
9.034848,5.057575565401043,0.0776831216633765
9.037236,5.075411272379432,0.0772581860255357
9.039616,5.0935265186115375,0.0768185591090774
9.04202,5.1168566711499786,0.0763250540938961
9.044404,5.138184722942,0.0758463383449221
9.046784,5.158302069920524,0.0753919660710436
9.049184,5.177255933913793,0.0749033733714227
9.051568,5.194207697160644,0.0744325430404426
9.053952,5.2126024826464725,0.0739764399551424
9.056348,5.230066102572522,0.0735231319592222
9.058736,5.244596456192377,0.0730954426851117
9.061116,5.255402147573117,0.0726860721343118
9.063512,5.261691780781827,0.0722920191835513
9.065896,5.263837442870842,0.0719453798372308
9.06828,5.260116572347466,0.0716430912022756
9.070676,5.25146033477148,0.0713815817836684
9.07306,5.24904271686022,0.0711071321623146
9.075456,5.245833703016043,0.0708290809040185
9.077852,5.240762358052309,0.0705613614814523
9.08024,5.23848450976791,0.0702828341861459
9.08262,5.232202459990678,0.070037030790336
9.085016,5.227083893198702,0.0698250947341904
9.087404,5.223036261593363,0.069601999872171
9.089784,5.211771622935276,0.0694461475303304
9.09218,5.207723991329938,0.069223735579769
9.094568,5.203955898978319,0.0689849053896468
9.096948,5.199628728119261,0.0687775112158239
9.099348,5.200236924312813,0.0685366511567742
9.101732,5.205268630879781,0.0682434658870878
9.104112,5.213233603752944,0.0679319915466709
9.106524,5.222129742185886,0.0676169915733082
9.108912,5.238894513977635,0.0672539220630317
9.111292,5.260175343941413,0.0668830917052046
9.113688,5.2833185050247495,0.0665066609767957
9.116076,5.312328198720475,0.066093889608421
9.11846,5.344131389095538,0.0656716465235018
9.120864,5.370999212417986,0.0652869895676875
9.123252,5.397447726859855,0.0649280063354393
9.125632,5.420543666114948,0.0646106063810443
9.128032,5.436143059063571,0.0643699331588488
9.13042,5.455327344624448,0.0641255079343909
9.1328,5.473580464625545,0.0638846321978806
9.135196,5.486618678320311,0.0636910710021308
9.137584,5.50417295018711,0.0634898508320148
9.139968,5.516093006866994,0.0633616578179642
9.142364,5.527873293920019,0.0632420887914012
9.144752,5.547242675078129,0.0630931577124142
9.147132,5.563399250676324,0.0629781924282875
9.149528,5.574340919968186,0.0629097533958519
9.15192,5.585934215566107,0.0628550817787673
9.1543,5.599250072656725,0.0628034440264716
9.156704,5.610284289747201,0.0627816750948179
9.159088,5.620527110904764,0.0627554377347129
9.161468,5.633842967995381,0.0627083247565761
9.163872,5.644085789152942,0.0626834341240196
9.166256,5.652186739937227,0.0626779944039067
9.168636,5.660287690721511,0.0626725546837938
9.171032,5.668528411132656,0.0626597636120728
9.17342,5.678771232290217,0.0626347106489709
9.1758,5.696510599754249,0.062540761025653
9.178204,5.711456470538945,0.0624539353171111
9.180592,5.726681880577361,0.0623525670313914
9.182972,5.749915693601445,0.0622043306432201
9.185376,5.771846254013414,0.0620321164837657
9.18776,5.7972691592390175,0.0618169180122928
9.19014,5.822692064464623,0.0616024759940208
9.192544,5.838803314092444,0.0614109438924795
9.194932,5.857196203720402,0.061194734606208
9.197312,5.877730963721637,0.0609603217100856
9.199708,5.8956119966703975,0.0607254601844363
9.202096,5.909908137006906,0.0604916454560738
9.204476,5.918617283984744,0.0602702260741054
9.206872,5.924253395029526,0.060069239257932
9.20926,5.922952038275279,0.0599041771221333
9.21164,5.922861386334532,0.0597224472678734
9.214036,5.925192144020781,0.0595079622022555
9.216424,5.929292685027972,0.0592490556015867
9.218816,5.930459959728965,0.0590016630929416
9.22122,5.935259348870455,0.0587074482693751
9.223608,5.938336176519249,0.0584121094992528
9.225988,5.943834413795042,0.0580855264630759
9.228384,5.948401485511053,0.0577605158424952
9.230772,5.9472417942415365,0.0574539725936703
9.233152,5.943940232598743,0.0571636681609159
9.235552,5.936494699836254,0.0569001082958149
9.237936,5.931470576700764,0.0566065059118561
9.240316,5.931521590244746,0.0562842451162736
9.242716,5.928779107109392,0.0559664741701822
9.2451,5.91923892580187,0.0556686054641049
9.24748,5.911188988561567,0.0553407211905454
9.249884,5.9054206913214005,0.0549884701137812
9.252272,5.901654494827653,0.0546249193501917
9.254652,5.898167837587626,0.0542448986600847
9.257056,5.895100489228177,0.0538398236233531
9.25944,5.891101975308951,0.0534353050472335
9.261824,5.8852411302701695,0.0530328531881517
9.26422,5.874677235604252,0.0526828043268711
9.266608,5.868257312058028,0.052306747496872
9.268988,5.855272007765112,0.051985395404619
9.271384,5.838002962725643,0.0516942054010274
9.273772,5.81766088175312,0.0514179118357599
9.276152,5.7981101967135125,0.0511472286023783
9.278548,5.779490677233685,0.0508748747639075
9.280936,5.7628732585002735,0.050592962880779
9.283316,5.750399810886557,0.0502871863113219
9.285716,5.734434018459202,0.0500184884019165
9.2881,5.720190787524547,0.0497569595834479
9.290496,5.706459413269088,0.0495156181002187
9.2929,5.699525737185797,0.0492558407988756
