Time,Force,Position
9.583064,2.1309042689276363,0.169248657982621
9.585444,2.2137137191988403,0.1676694723979543
9.58784,2.2932197119693813,0.1659807994221403
9.590228,2.3641601191046826,0.1647429203476613
9.592624,2.431749846911078,0.1634642810995024
9.595024,2.4891911972163983,0.1626677179528305
9.597412,2.539324888528221,0.1619145387835394
9.599792,2.5809402160330484,0.1613375431776859
9.602192,2.6217660434628263,0.1604855093645308
9.604576,2.654725133391666,0.1597318555921804
9.60696,2.686382866566261,0.1586577201694247
9.609356,2.7196725092928027,0.1571603458718677
9.61174,2.7375988682119368,0.1562413918110058
9.61412,2.7487747507871463,0.1555387804095433
9.61652,2.764094604482049,0.1546464774779093
9.618904,2.784210055602704,0.1535578380684023
9.695372,2.8563177374390007,0.1524696783609432
9.69776,2.858971464491475,0.1523956544450743
9.700144,2.860694025984172,0.1523530981954282
9.70254,2.863767061917227,0.1522261578900045
9.704928,2.8639068315440874,0.1522078579426222
9.707308,2.864977766730726,0.152158021242453
9.709708,2.873405478596974,0.151776803990717
9.712096,2.881041794530304,0.1514137436707313
9.714476,2.88453413934394,0.1512272514739366
9.716876,2.887327636023274,0.1511333726091327
9.719264,2.895056499755221,0.1508345843962365
9.721648,2.9035767594200865,0.150517953120413
9.724044,2.92038496132434,0.1498261928031188
9.726432,2.941197364721426,0.1489669763338172
9.728812,2.9668053655442645,0.1479224013842049
9.731208,2.985987755247272,0.1471826042032612
9.733596,3.0061013105100574,0.1464235278739052
9.73598,3.0274255705863413,0.1456154303609282
9.73838,3.04567679472957,0.1449474593712462
9.740768,3.058992651820187,0.1444842220635426
9.743152,3.06858384667169,0.1441565302770647
9.745548,3.0789664374561125,0.1438279345134358
9.747936,3.090559733054033,0.1434427402714384
9.75032,3.101221863092175,0.1430888906788731
9.75272,3.1196128568622643,0.1424887211513751
9.755108,3.1407973473116884,0.1418102739852061
9.757488,3.1569067010816405,0.1413258139218677
9.759888,3.1722246589186742,0.1408548772363754
9.762276,3.193688688621819,0.1401578658571568
9.764656,3.2143613223920453,0.139462852847515
9.76706,3.2368962872818283,0.1387189624917984
9.769444,3.262783827358387,0.1378412251657362
9.771824,3.283736000382334,0.1371497196877961
9.774228,3.3013355982195045,0.1366022773373689
9.776616,3.3174449519894567,0.1361521246579664
9.778996,3.3386294424388807,0.1355159840904202
9.7814,3.3596741632614444,0.1349080792436802
9.783784,3.37773839594957,0.134481057464887
9.786164,3.399667060503669,0.1339467050347031
9.788568,3.421967812110106,0.133443199812404
9.790956,3.441707384462685,0.1330655198866118
9.898464,3.4648429621145445,0.1329708010066749
9.900844,3.453718093083317,0.132911766210675
9.903248,3.4488790655450603,0.132656358109556
9.905636,3.44562282987264,0.1323883295677234
9.90802,3.445299860506415,0.1320413423457751
9.910412,3.441624315953414,0.1318142297159857
9.9128,3.44023041140055,0.1315008883590734
9.915184,3.443911643527159,0.1310400507883457
9.917584,3.4576033793858514,0.1302988108584007
9.919968,3.4720865111774626,0.1295510964160193
9.922352,3.4893631396484084,0.1287394601155344
9.924748,3.5135772359183832,0.1277470837289243
9.927136,3.538954815173613,0.1267823436323308
9.929516,3.5626098329361477,0.1258563640866423
9.931912,3.57997900920571,0.1251265975210679
9.9343,3.603074948460804,0.1242541279745462
9.93668,3.620164585476647,0.1235515861910086
9.93908,3.638464927305989,0.122804699512014
9.941468,3.6607694706281633,0.1219573526643652
9.943848,3.679721438763562,0.1212399857515726
9.946244,3.70533133544427,0.1203796836328174
9.948632,3.724375851378286,0.1197488003958615
9.951012,3.7432805976854415,0.1191462443811297
9.953408,3.7603230128730414,0.1185795798976571
9.9558,3.779367528807058,0.1179709748264079
9.958196,3.8054892821669632,0.1171895537031177
9.960592,3.8282584603400927,0.1165144229428214
9.96298,3.843159005154414,0.1160166648077823
9.96536,3.851773708475767,0.1156977615010031
10.010772,3.8577327888867754,0.1155858604393266
10.01316,3.864063956350119,0.1155630522313568
10.01554,3.87253699418674,0.1154837140634618
10.017936,3.886876564635753,0.1152885601225083
10.020328,3.904568710271541,0.1149993277066312
10.022708,3.920538294414632,0.1147311298643023
10.025104,3.9389292881847218,0.1143826652409203
10.027492,3.957599821208532,0.1140137082025572
10.029876,3.9725456919932274,0.1137080100756232
10.032272,3.985769001285227,0.1134220979547394
10.03466,4.004207216883559,0.1130096696756568
10.03704,4.023856137295391,0.1125559484409855
10.03944,4.046066236961079,0.1120171201770434
10.041824,4.064272135133934,0.1115565673471582
10.044208,4.084759673306927,0.1110299721003748
10.046604,4.1056665203605,0.1104670028730726
10.048992,4.121917539615182,0.1099760623258857
10.051372,4.138448098123583,0.1094652477113249
10.053776,4.156468900699204,0.1088978499098898
10.05616,4.171696206595489,0.1083764563190993
10.058544,4.186132116558857,0.1078627034686492
10.06094,4.195772429096473,0.1074297787697925
10.063328,4.205272972007228,0.1070118734848027
10.065708,4.209838147865373,0.1066898728412264
10.068108,4.21091097890988,0.1064683229345269
10.070496,4.211983809954388,0.1062469824774969
10.072876,4.21091477062562,0.1060759793887568
10.07528,4.207843630550434,0.1059431775813335
10.077668,4.206495051967944,0.1057958069338506
10.080052,4.20700880450501,0.1056230897533976
10.082448,4.209105348907914,0.1054498246894269
10.084832,4.212412598124316,0.1052419549353537
10.087212,4.215440308086998,0.1050598628428979
10.08962,4.222751758796233,0.1047822670350846
10.092004,4.226990173572412,0.1045639653491668
10.094384,4.231088818721734,0.1043575983231311
10.09678,4.241193766110304,0.1040452211622942
10.099168,4.250227778312235,0.1037581755273106
10.101552,4.252044783461419,0.1036101692752386
10.103948,4.2537220189837415,0.1034729445437881
10.106336,4.2574013552524805,0.103302408384488
10.108716,4.263874188200554,0.1030944734339256
10.111112,4.270766330029209,0.1028545902044365
10.1135,4.281522903723838,0.1025583728692648
10.115884,4.291627851112408,0.1022477734424055
10.118288,4.301732798500978,0.1019379126476994
10.120676,4.313700077009106,0.1016043377416422
10.123056,4.32645875145015,0.1012696044775043
10.125452,4.337355094771639,0.1009586394189673
10.12784,4.346389106973572,0.1006738257705388
10.130224,4.353840327309667,0.1003936626014939
10.13262,4.356728267645489,0.100225275861456
10.135008,4.356263632794534,0.1001364535626449
10.137388,4.35686993313022,0.1000260018532976
10.139792,4.362551370145376,0.0998275965494275
10.142176,4.36902420309345,0.0996299427214629
10.14456,4.373355165668247,0.0994785780076164
10.146956,4.378477524175962,0.099327967433489
10.149344,4.392399681602263,0.0990477002999768
10.15172,4.4101862708945365,0.0987163421431834
10.154128,4.4251793635074765,0.0984216508236393
10.156512,4.4401724561204166,0.0981269595040952
10.158896,4.453815074292997,0.0978767928006978
10.161296,4.464152339107045,0.0976387817230996
10.163684,4.479564740600565,0.0973211453278576
10.166064,4.492975041347668,0.0970325637465244
10.168464,4.503731615042296,0.0967629572571827
10.170848,4.520494490976176,0.0964095266931437
10.173232,4.539399237283331,0.0960168746767748
10.175628,4.557233048403849,0.0956437114784308
10.178016,4.571993823591312,0.0953203784814257
10.180396,4.595042541018161,0.0948596011683134
10.182792,4.61958150251223,0.0943459333568054
10.18518,4.641838824006162,0.0938877409193806
10.18756,4.66009194400726,0.0934928479975771
10.189956,4.677553668075441,0.0930986683368726
10.192344,4.691150960277647,0.092750232059105
10.19474,4.701814986173659,0.0924387723210395
10.197136,4.710896220203834,0.092131399706491
10.199524,4.718254892741313,0.0918356075053319
10.201904,4.721469594159098,0.0916031452731791
10.2043,4.726034770017241,0.0913326096806396
10.206688,4.731810650688884,0.0910342503200557
10.209072,4.737027452853085,0.0907755622485846
10.211468,4.739171219084232,0.0905649224654485
10.213856,4.744248251621573,0.090318372019228
10.216236,4.755052047144445,0.0900131475214107
10.218632,4.756264647815813,0.0898129519725142
10.22102,4.75733747886032,0.0896236186973445
10.223404,4.759621014718327,0.0894063588952995
10.2258,4.76404642094961,0.0891524870599397
10.228188,4.764886934568642,0.0889246202623256
10.230568,4.762654412254617,0.0887384571694931
10.232972,4.760561659567452,0.0885425955280686
10.23536,4.759260302813205,0.088348311179034
10.23774,4.756236384566263,0.0881592725662919
10.240136,4.759218768558569,0.0878945221234393
10.242528,4.764622562177875,0.0875742981550415
10.244908,4.763740514304208,0.087348726002053
10.247304,4.759925200124347,0.0871559802326114
10.249688,4.76011408743732,0.0869106037524386
10.252072,4.758021334750156,0.0867107371684429
10.254468,4.752715776503075,0.0865636986941411
10.256856,4.749412319002412,0.0863910827084592
10.25924,4.747179796688387,0.0862011379542084
10.261636,4.746809605493918,0.0859974478625378
10.264024,4.74071265131392,0.085848974912565
10.26642,4.739271524932812,0.0856623715533491
10.268816,4.737039002618788,0.0854738715878698
10.271204,4.735597876237681,0.0852881041698718
10.273588,4.736019080976131,0.0850888044305058
10.275984,4.732016775341167,0.0849656228604206
10.278372,4.732018671199036,0.0847940365630452
10.280752,4.730158235937348,0.0846362315644892
10.283156,4.730439671048938,0.0844455839258456
10.285544,4.735097394705699,0.0842395585733412
10.287924,4.735471377615906,0.0841006411958525
10.29032,4.738359317951727,0.0839613892940624
10.292708,4.746462164593881,0.0837488840373534
10.295088,4.756008033475011,0.0835499766353471
10.297492,4.769558103848974,0.0833081944587059
10.29988,4.785389814223075,0.0830256309467043
10.30226,4.804294560530232,0.0827031127773299
10.304656,4.822128371650749,0.0823981029728864
10.307044,4.83660960758449,0.0821503111263873
10.309424,4.846435015719341,0.0819370357633318
10.31182,4.857051819787109,0.0817251909444965
10.314208,4.863524652735183,0.0815675512854254
10.316588,4.868786780869758,0.0814356814528856
10.318984,4.873117743444555,0.0813110789155147
10.321372,4.875306835646076,0.081219361814719
10.323756,4.884712934900345,0.081035574595075
10.326152,4.895701826020452,0.0808601403643069
10.32854,4.914279811245644,0.0806284564573887
10.33092,4.927782659791364,0.0804553952563
10.333316,4.937560846097971,0.0803079411852357
10.335704,4.951483003524272,0.0801096028593991
10.338088,4.960609563524821,0.0799515180501189
10.340488,4.966663087592316,0.0798298455604644
10.342876,4.976348726100305,0.0796370289021524
10.34526,4.979888292742184,0.0795168306416396
10.347656,4.983008550503483,0.079424430904762
10.350044,4.987199743451419,0.0793183483241503
10.352428,4.993393037145773,0.0791928469699613
10.354824,5.006011941959958,0.0789822152351111
10.357212,5.022495278640117,0.0787417643632051
10.359596,5.044984917559527,0.0784464758675208
10.361992,5.075902268345184,0.078050748908978
10.36438,5.104957288011285,0.0776616277947181
10.366764,5.136014408423803,0.0772569748722781
10.369168,5.166280132903401,0.0768484413538214
10.371556,5.189468619957111,0.0765146618962975
10.37394,5.210143149585207,0.0761822528329486
10.376336,5.222297419548436,0.0759066686836855
10.378724,5.2384558910045005,0.0755927228570493
10.381104,5.253822966527647,0.0752733395099696
10.3835,5.264534214251901,0.0749807036021655
10.385888,5.275525001229877,0.0746687176091247
10.388272,5.291730694514184,0.0742994642153614
10.390668,5.302069855186102,0.0739783771774441
10.393056,5.313619720671516,0.0736331096777719
10.39544,5.328382391716848,0.0732525030729688
10.397836,5.339280630896207,0.0729000989046459
10.400224,5.346873516717032,0.0725417315624509
10.402608,5.34645799955219,0.0722540873975412
10.405,5.345251086454431,0.0719642242962356
10.407384,5.336315309624723,0.0717262762004521
10.40978,5.320302295369126,0.0715508015259574
10.41218,5.313368619285836,0.071297889935366
10.414568,5.301639345776792,0.0710724314391756
10.416948,5.292983108200805,0.0708187737083048
10.419351999999998,5.287260136931014,0.0705439712132993
10.421739999999998,5.281397396034363,0.0702773540969089
10.42412,5.278328151817046,0.0699978281470937
10.426524,5.279542648346283,0.0696738120475
10.428907999999998,5.286903216741631,0.0692975552314319
10.431288,5.296917512189454,0.0689186046169032
10.433684,5.310516700249529,0.068534337583678
10.436068,5.321694478682609,0.0681932023298234
10.438448,5.338179711220636,0.0678481674054125
10.440855999999998,5.3565272748782204,0.0674970214579938
10.44324,5.368728766669694,0.0671998581941121
10.44562,5.387588187006476,0.0668745101843872
10.448023999999998,5.40933365182121,0.066584428965621
10.450411999999998,5.438668210741031,0.0662609755088295
10.452792,5.468514626340049,0.0659616054251908
10.455187999999998,5.501945934551321,0.0656565773206832
10.457576,5.538822365747985,0.0653546169913218
10.45996,5.566060380264904,0.0651541689909699
10.462352,5.598885388140492,0.0649360981001908
10.46474,5.631430856762359,0.0647377824796433
10.46712,5.665698886876924,0.0645427955226727
10.469523999999998,5.701037852178127,0.0643392363887269
10.471908,5.736237047852468,0.0641439281000427
10.474288,5.763148301287422,0.0640201958661378
10.476691999999998,5.785356505095241,0.0639629557039587
10.479079999999998,5.806493773716422,0.0639164773743715
10.48146,5.828701977524242,0.0638616241424554
10.483859999999998,5.851189720585782,0.0637928222639417
10.486247999999998,5.867810931034931,0.0637538567985174
10.488628,5.881498875177886,0.0637301823597868
10.491027999999998,5.8974684593209785,0.0636788488510947
10.493415999999998,5.905709179732122,0.0636634864294884
10.495796,5.910784316411595,0.0636284430253186
10.498192,5.912134790851955,0.0636037711431568
10.50058,5.910831538239838,0.0635791575525597
10.502956,5.908736889694804,0.0635496379760851
10.505363999999998,5.90706155003035,0.0634983107375741
10.507748,5.91102042555281,0.0633835368467681
10.510128,5.911254638836156,0.0632788144871298
10.512531999999998,5.907624420253528,0.0631908611508903
10.514919999999998,5.902131870551345,0.0631078474888115
10.5173,5.894357680849025,0.0630512557948436
10.519704,5.888865131146841,0.0629682695424469
10.522087999999998,5.8865853870045735,0.062856231622955
10.524468,5.883793786183108,0.0627244977227236
10.526868,5.881281724615363,0.0625782098473679
10.529251999999998,5.872903130435226,0.0624600388796883
10.531636,5.860380565135397,0.0623724036384894
10.53404,5.851629883902925,0.0622261419060306
10.536428,5.847162943417007,0.0620415868494889
10.538808,5.843766938117726,0.0618478462837219
10.541204,5.842373033564861,0.0616413094733021
10.543587999999998,5.842701690504693,0.0614372893043856
10.545968,5.842378721138468,0.0612205879236038
10.548376,5.842195521399104,0.0609959977751094
10.55076,5.84122092572682,0.0607658944613615
10.55314,5.835590502255645,0.0605455365744751
10.555535999999998,5.828097747664914,0.0603295351302922
10.557923999999998,5.822607093820601,0.0601023988062651
10.560308,5.823402281469257,0.0598288926466129
10.562703999999998,5.8256877131851335,0.0595255010526793
10.565088,5.829603158595088,0.0591840999794454
10.567468,5.831796042512346,0.0588407815130478
10.569876,5.834920091989383,0.058496864960821
10.572259999999998,5.840186011839696,0.0581360907176815
10.57464,5.844520766130233,0.0577768217220009
10.577035999999998,5.852208095607545,0.0573833612926276
10.579424,5.864179165831409,0.0569544614956405
10.581804,5.875730927174694,0.0565487503477391
10.584208,5.885932214077622,0.0561688106011177
10.586595999999998,5.895993731353686,0.0557982167111359
10.588976,5.907405723070111,0.0554057022694483
10.59138,5.920028419600037,0.0549995249832696
10.593763999999998,5.9343736776226566,0.0545994014813634
10.596148,5.948718935645276,0.054199027203457
10.598539999999998,5.963995359227675,0.0537980418049399
10.600927999999998,5.978992243556352,0.0534078289475352
10.603312,5.992918192698391,0.053026371978485
10.605704,6.001908774787819,0.0526624243859744
10.608092,6.003542580197636,0.0523483954740175
10.610472,6.002894745607318,0.0520576181248003
10.612875999999998,6.000896436576639,0.0517885904060418
10.615263999999998,5.996476717918963,0.0515485266358473
10.617644,5.988983963328231,0.0513242687016237
10.62004,5.976555841684888,0.0511161779307419
10.622428,5.965710511907381,0.050920819461224
10.624808,5.95644797399571,0.0507385419111125
10.627204,5.946114500897401,0.0505637052051009
10.629588,5.937783128545509,0.0503811699156976
10.631984,5.926798029141142,0.0501924061233211
10.634384,5.91273989380372,0.0500182558654342
10.636767999999998,5.899193615145495,0.0498642841421843
10.639148,5.881643134994436,0.0497243685371221
10.641547999999998,5.861159388537183,0.0495914049292326
10.643932,5.839464937266429,0.0494716151524986
