Time,Force,Position
9.518032,2.585092081887083,0.1640289543482837
9.520412,2.5923544149102056,0.163834197070295
9.522808,2.598313495321213,0.1636418383416072
9.53236,2.604737210583175,0.1635871821843509
9.534736,2.6106962909941824,0.1633913008247768
9.537132,2.625175631070055,0.1628154872749359
9.53952,2.640958223758044,0.1622452482028764
9.5419,2.6545989460727557,0.1617957872312538
9.544296,2.668239668387466,0.1613535692280565
9.54668,2.684441569956035,0.1607263943309963
9.549064,2.69677903965863,0.160278351648377
9.551456,2.711677688615083,0.1596627638769568
9.553844,2.722200049026365,0.1592014603009693
9.556224,2.7303482216388923,0.1588007678428336
9.55862,2.737704998318502,0.1584199250140436
9.561008,2.74641224943847,0.1579462417854687
9.563388,2.7569818316779955,0.1573907791846817
9.565784,2.7666202483577425,0.1568775553194321
9.568172,2.7754672691045705,0.1563844966603646
9.570552,2.780821945037764,0.1561006900202629
9.572948,2.7849659161574576,0.155892714541284
9.575336,2.7971182902628198,0.1553156779001546
9.577716,2.816999528100128,0.1544124775997753
9.580112,2.8394419451912936,0.1533792055386992
9.5825,2.855226433737151,0.1526151950778261
9.58488,2.86421322411084,0.1521374143506879
9.587292,2.874830028178609,0.1515405415948079
9.58968,2.887868241873374,0.1508021100249467
9.59206,2.900254829262081,0.1500646210202682
9.594456,2.9122221077702086,0.1493939125256871
9.596844,2.92805381814431,0.1485755369795784
9.599224,2.9394620181449955,0.1479856475569934
9.601636,2.956596981131212,0.1472011071463535
9.604024,2.9723814696770696,0.1465000820467331
9.606404,2.991890620462041,0.1456958218064774
9.6088,3.008838591993153,0.1450438694656035
9.611188,3.0297907650171005,0.1442530726300101
9.613568,3.0506031684141868,0.1434816892206403
9.615984,3.074348838117469,0.1426238808721867
9.618372,3.1023782485673044,0.1415797043949995
9.620768,3.133620464577056,0.1404036800404577
9.623164,3.159927313534196,0.1394375507614975
9.625552,3.1807869387595256,0.1386381170136757
9.627932,3.196291888051663,0.1380684922435212
9.630328,3.2147301036499947,0.1373951112192189
9.632712,3.2373122903680214,0.1365666694702423
9.635092,3.256681671526132,0.135875679565517
9.637488,3.2748403478707435,0.135249820990953
9.639876,3.2955129816409703,0.1345930051704445
9.642272,3.3180479465307533,0.133900422483382
9.644676,3.3369980188082837,0.1332917027836183
9.64706,3.357438335153032,0.1325902343189668
9.7044,3.4021266985909144,0.1323261580447514
9.70678,3.413857867957826,0.1322386435111102
9.709184,3.425868576578458,0.132123245096305
9.711572,3.4430941915054216,0.1318417250180723
9.713952,3.4599477193800485,0.1315241467661044
9.716348,3.4782914913218943,0.131127892574132
9.718736,3.49649549363688,0.1307515052013194
9.721116,3.511114603339613,0.1304488352500231
9.723512,3.527735813788763,0.1300891477745747
9.7259,3.5486407649844667,0.1295903221494544
9.72828,3.568614550620392,0.1291030319114987
9.730676,3.582582034017067,0.1287895220472555
9.733064,3.598831157413879,0.1283950386053156
9.735444,3.618804943049805,0.127922199733347
9.737848,3.641572225365065,0.127392374054074
9.740236,3.667831852493961,0.1267372798413172
9.74262,3.692368918130161,0.1261131317136148
9.745016,3.721329494139775,0.1253387718708186
9.7474,3.7536426453361647,0.1244587784910609
9.749784,3.785443939853357,0.1235697556868759
9.75218,3.809516370638603,0.1228811630176487
9.754568,3.828281347318899,0.1222846718424206
9.756948,3.847186093626055,0.1216820786775811
9.759348,3.8640887391867937,0.1211401351261895
9.761732,3.879640910307174,0.1206544825935818
9.764112,3.8939823766140553,0.1202161250159599
9.766516,3.9075324469880193,0.1197843552407091
9.768904,3.920802978108262,0.1193757652653099
9.771288,3.9332821132955873,0.1189736101287527
9.773684,3.944457995870796,0.1185626563955593
9.776072,3.955913417699725,0.1181195187395206
9.778452,3.967927918036096,0.11761684601269
9.780856,3.980082187999327,0.1171109865894621
9.821468,3.770604062490851,0.1170625308199398
9.823868,3.763156633870494,0.1169797163962955
9.831032,3.738438264352798,0.1169513109612525
9.833424,3.738812247263005,0.1167745553117241
9.835804,3.7419797268525454,0.1165505746266705
9.838204,3.748732099054341,0.1162765580847226
9.840588,3.7645638094284415,0.115796603038437
9.842972,3.7837480949893183,0.1152182728052183
9.845368,3.8042828549905536,0.1145788768019548
9.847756,3.822024118312454,0.1139855125490203
9.85014,3.834969784208603,0.113488082836651
9.852536,3.84270054379842,0.1131211489782865
9.854924,3.850943160067434,0.1127710409777391
9.857308,3.858906237082728,0.1124482585621108
9.900316,3.851364364805882,0.1124200849145795
9.902712,3.857555762642367,0.1124144378550928
9.9051,3.8656094915984087,0.1123796937371797
9.90748,3.871149263128836,0.1123647851463467
9.912268,3.8798546183909344,0.1123414555017121
9.914648,3.8887469651081368,0.1122318781827247
9.917048,3.896568376638701,0.1121478417965882
9.919436,3.90825422003524,0.1119907391564152
9.921816,3.915004696379165,0.1119345059080035
9.924216,3.923757273469508,0.1118382837274664
9.9266,3.936933360933265,0.1116282204726532
9.928984,3.956395289889992,0.1112708298907219
9.93138,3.979070024406636,0.1108309560271029
9.933768,4.00681989560275,0.1102894772466857
9.936152,4.031496730865811,0.1098132797257609
9.938556,4.05780357982295,0.1092668075105205
9.940944,4.0826674065411135,0.1087212920598828
9.943328,4.108602168445915,0.1081529668857166
9.94572,4.135607865537356,0.1075620544073891
9.948108,4.1600996052031824,0.1069920400569374
9.950492,4.180587143376173,0.1065132883928916
9.952888,4.199631659310191,0.1060307500652498
9.955276,4.221190132669822,0.1055363737196201
9.957656,4.24312069308179,0.105077340507218
9.960052,4.273478965360006,0.1044435182612374
9.96244,4.298110474652692,0.1039025303542977
9.96482,4.330890156557905,0.1032187276268833
9.967216,4.360224715477727,0.1025625481562177
9.969604,4.393982784770962,0.1018051429581523
9.971988,4.425226896638582,0.1010725446244228
9.974384,4.448462605520537,0.1004843506540642
9.976772,4.4658317817901,0.0999873783680548
9.979156,4.482269792499885,0.0995042185750448
9.981552,4.493912205783917,0.0990923342932679
9.98394,4.509698590187645,0.0986048465378743
9.98632,4.520549607538759,0.0981930498955471
9.988724,4.526465257837262,0.0978550297491161
9.991112,4.531449742575987,0.0975291711495909
9.993492,4.53657399694157,0.09719479578522
9.995892,4.54435197835963,0.0968411349860879
9.99828,4.550127859031272,0.0965194938138157
10.00066,4.556415596382112,0.0962210993778334
10.003056,4.560049606680479,0.095943922250901
10.005444,4.5674555010462,0.0955668423449646
10.07474,4.4169958301352725,0.0955628146785971
10.077128,4.423234449800001,0.0955161625498534
10.079512,4.437201933196675,0.0953710141756957
10.081916,4.450098481406712,0.0952486770805342
10.084308,4.464857360736305,0.0951092848380855
10.086688,4.4789173919315965,0.0950239395914516
10.089084,4.494699984619585,0.0949300896807796
10.091472,4.511693282121072,0.0948058592050747
10.093856,4.532551011488533,0.0946347287567433
10.096252,4.554479676042632,0.0944426360582403
10.09864,4.57747927578337,0.094232340154126
10.10102,4.595962817352075,0.0940529505875103
10.10342,4.6151452070550825,0.0938246045516187
10.105808,4.627018041906723,0.0936611280315228
10.108188,4.63651668895961,0.093495881506718
10.110588,4.654582817505605,0.0931772513722471
10.112976,4.680425031611789,0.0927098619410637
10.115356,4.710690756091389,0.0921629594279022
10.117756,4.738442523145374,0.0916300870490174
10.120144,4.766893138333661,0.0910607725729015
10.122524,4.789756760163277,0.0905437773327462
10.124924,4.8102461941941375,0.0900249487880012
10.127312,4.829152836359163,0.0895127238430024
10.129696,4.845265981844854,0.0890236097360264
10.132096,4.860587731397626,0.0885375110525094
10.134484,4.874094371659084,0.0880098618551785
10.136864,4.887508464121924,0.0874356501982768
10.139264,4.898268829532292,0.08687160743521
10.141652,4.905584071957265,0.0863194327370983
10.144028,4.9137379321434,0.0857123240202909
10.146424,4.921240166023478,0.0850960904447916
10.148808,4.935028241396526,0.0843851804168937
10.151188,4.9466744463962975,0.0837101545238849
10.153592,4.96418718400846,0.0829725790946105
10.15598,4.983702022367038,0.0822155208264982
10.15836,4.996558932180309,0.0815249350738426
10.160768,5.002850461246887,0.0809460684794109
10.163152,5.003135688074216,0.0804339973909857
10.165532,5.002349979714905,0.079937002043398
10.167936,4.9944870339297065,0.0795186460396171
10.170324,4.990488520010481,0.079065693456511
10.172704,4.990354437957228,0.0785823673242393
10.175108,4.983702196985527,0.078137491512729
10.177496,4.980122991946882,0.0776565438098976
10.179876,4.972958894295983,0.0771877235965018
10.18228,4.964444322204725,0.0767494757231535
10.184664,4.956441606792666,0.0763335379620289
10.187048,4.954305423992997,0.0758673704693033
10.189444,4.957616464925137,0.0753810712015783
10.191828,4.960088888096116,0.0749497059525489
10.194212,4.962421541640235,0.0745280997779933
10.196608,4.963543490370854,0.0741309160008175
10.198996,4.962663338355059,0.0737498640070766
10.201376,4.960572481525763,0.0733937814742769
10.203772,4.952847409509555,0.0731222581387879
10.20616,4.946425590105463,0.0728758199567344
10.208544,4.943076806634426,0.0725977357730923
10.210936,4.944244081335419,0.0723046993667226
10.213324,4.944060881596054,0.0720416774592076
10.215704,4.9474625744689416,0.0717666522291298
10.218108,4.950724497714969,0.0715023903190084
10.220496,4.948631745027805,0.0713065972717428
10.222876,4.952498072751648,0.0711135317328869
10.225272,4.952080659728936,0.0709742905526154
10.22766,4.956830931184315,0.0708348753442986
10.24916,4.919680648307538,0.0707236394616159
10.25154,4.922241827561396,0.0706705647177501
10.253936,4.925734172375032,0.0706133828721981
10.256324,4.92722441644225,0.0705738456790815
10.258708,4.926433020509332,0.0705691567870115
10.261104,4.930856530882746,0.0705088831094646
10.263492,4.933417710136604,0.0704565334143965
10.265872,4.933557479763465,0.0704477075091554
10.268268,4.93691005495024,0.0704000295764265
10.270656,4.939471234204098,0.0703479169064613
10.273052,4.948969881256985,0.0702413156686163
10.275448,4.952601995697481,0.0701763999863148
10.277836,4.959027606817312,0.0700994271341651
10.280216,4.973321851295951,0.0699651355789204
10.282612,4.992039606148004,0.0697725751161893
10.285,5.01476156249289,0.0695464431448708
10.28738,5.037623288464637,0.0693120507833874
10.28978,5.057411978503327,0.0691064205540178
10.292164,5.073848093355244,0.068949475383453
10.294548,5.089772351527961,0.0687720872427472
10.296944,5.107139631939655,0.0686132160853409
10.299332,5.124786451605069,0.0684402989102657
10.301716,5.143643976083983,0.0682488308738835
10.30412,5.161710104629977,0.0680530849059341
10.306504,5.182477182056688,0.067801391277569
10.308888,5.200171223550346,0.067580059831241
10.311284,5.225082272096752,0.0672972519888678
10.313672,5.252274960643296,0.0669823542932158
10.316052,5.275323678070146,0.0667049291096106
10.318448,5.294927272511603,0.0664237685787064
10.320836,5.309735269527308,0.0661701347611913
10.32322,5.3331107480361215,0.0658275438944954
10.325616,5.354903434679099,0.0654772059664189
10.328004,5.368547948709549,0.0651941977194358
10.3304,5.37525499494097,0.0649570766384055
10.332796,5.380891105985751,0.0647319796684567
10.335188,5.386806756284255,0.0644912559757324
10.337568,5.396074981769534,0.0642092962992208
10.339964,5.405762516135392,0.0639032275079251
10.342352,5.416660755314751,0.0635814233304753
10.344736,5.427326677068632,0.0632236145968903
10.347132,5.433988397329679,0.0628933776240209
10.349516,5.435994289791834,0.0625761986455659
10.351896,5.434787376694074,0.0622883038716736
10.3543,5.425432290983786,0.0620598077265723
10.356688,5.417287910086997,0.0618126798068184
10.359068,5.401786752510598,0.0616315734721849
10.361472,5.384563033441503,0.0614466783282898
10.36386,5.374696091052017,0.0611971633539322
10.36624,5.369484976461423,0.0609355669230931
10.368636,5.366415732244106,0.0606535999020269
10.371024,5.35598971134718,0.0604352647292591
10.373408,5.346355086383173,0.0602227770865663
10.375804,5.34114397179258,0.059961918604691
10.378192,5.343801490560791,0.0596612323083085
10.380576,5.346598778955865,0.0593530403717743
10.382972,5.353120729590052,0.0590401661266384
10.38536,5.357500809850961,0.0587471667229073
10.38774,5.361741120485012,0.0584623261850917
10.390136,5.3638395607457845,0.0581980479951057
10.39252,5.366449857685754,0.0579560756263803
10.394904,5.372924586491697,0.0577004191456499
10.397308,5.382053042350115,0.0574468678060325
10.399696,5.40012106675398,0.0571496110583191
10.402076,5.424986789330011,0.0568229505422569
10.404472,5.448362267838824,0.0565302536722614
10.40686,5.474810782280694,0.0562168075131753
10.409244,5.50312162784212,0.0559021400469857
10.41164,5.527800358963049,0.0556425734266479
10.414028,5.55168769415106,0.0553802825743007
10.416412,5.575155720458491,0.0551427780436954
10.418808,5.604490279378312,0.0548842978173457
10.421196,5.631822737551715,0.0546363035706726
10.423576,5.655802620538343,0.0544224303603693
10.425972,5.674847136472359,0.0542319441059072
10.42836,5.697616314645489,0.0540396933484809
10.430744,5.717312456885564,0.0538682637337335
10.433148,5.740593491737891,0.0537010317524862
10.435532,5.7650852314037175,0.0535199753819206
10.437916,5.787155561442546,0.0533693002751116
10.440312,5.809086121854516,0.0532267551291001
10.442704,5.830876912639623,0.0530933832337321
10.445084,5.857603070477342,0.0529440286709996
10.44748,5.880464796449089,0.0528081520283529
10.449868,5.907330723913669,0.052658191832671
10.452252,5.9356868954454685,0.0524807204282444
10.454648,5.961389339924794,0.0522990603060161
10.457036,5.984810144403982,0.0521398408478545
10.459416,6.010000732204108,0.0519406922031776
10.461812,6.034632241496795,0.0517703489276702
10.4642,6.058751894110283,0.0515812315723707
10.46658,6.074071747805185,0.0514173153649021
10.468976,6.090602306313588,0.0512393608630223
10.471364,6.112208001501461,0.0510389765273513
