Time,Force,Position
11.970648,3.144802188844492,0.1740992793553021
11.973036,3.2700712719552927,0.1714524840412353
11.975416,3.3960410990582623,0.1684036509021567
11.977812,3.514470949742259,0.1653696171983218
11.9802,3.624197341022025,0.1622310884233098
11.982584,3.718143035471672,0.1597343590243447
11.98498,3.796772667942154,0.1578002231132913
12.037564,3.886702785751752,0.1560134490087558
12.039943999999998,3.8915437091478777,0.1560097667904295
12.042348,3.8970362588500618,0.1560091680374873
12.047116,3.913700899411716,0.1559219023588451
12.049512,3.928038574002859,0.1557994096159833
12.0519,3.945029975646477,0.1556119493561616
12.05428,3.9649546435962897,0.1553354371608155
12.056676,3.989302821919518,0.1548889564537763
12.059064,4.020728237668634,0.1542121689353816
12.061443999999998,4.0498720134176125,0.1536464101128011
12.063844,4.079015789166593,0.1530806512902206
12.066232,4.109789578609651,0.1524245039377022
12.068611999999998,4.134744057268562,0.1518696883116294
12.071008,4.160676923315495,0.1512224732768414
12.073396,4.179532551936538,0.1508053745987088
12.075776,4.19973865499794,0.150339931120251
12.07818,4.230746657724346,0.1495730924407199
12.080568,4.268971667503499,0.1485864651797546
12.082947999999998,4.30319247578982,0.1477462560357135
12.085352,4.336342348889502,0.1469539481914134
12.087736,4.367210581989047,0.1462579299166134
12.090115999999998,4.397706728036255,0.1455319475054613
12.092512,4.426899621471346,0.1448114942711775
12.094896,4.455208571174903,0.1440401716832984
12.097276,4.475928426773372,0.1434526277960717
12.09968,4.499721318304897,0.1427820447815458
12.102068,4.523002353157224,0.1420999925052777
12.211968,4.242925748458363,0.1416511304130258
12.214364,4.24995576405601,0.141536570092467
12.216752,4.261921146706268,0.1413080893825799
12.219131999999998,4.281056314581032,0.1409476627494394
12.221528,4.302473122455933,0.1405151122158439
12.223916,4.329896232570086,0.1399268128375704
12.226296,4.356527946751319,0.1393553126747379
12.228692,4.382647804253355,0.1387649718969243
12.23108,4.411328841009249,0.1380719226415223
12.233463999999998,4.443502222578779,0.1372649007105064
12.23586,4.473301416349555,0.1364960635356601
12.238243999999998,4.501098509373913,0.1357698409428273
12.24064,4.5343900479583255,0.1348834764618074
12.243036,4.5660987946769,0.1340271735971432
12.245424,4.59487427508928,0.1332464051718761
12.247804,4.623789525128521,0.1324603888113608
12.2502,4.648700573674928,0.1317746861678202
12.252588,4.676265349273809,0.1310584900958613
12.254967999999998,4.696241030767602,0.1304874269487911
12.257372,4.716124164462781,0.1298679383162367
12.25976,4.737916851105758,0.1291497028710909
12.26214,4.751329047710731,0.1285919614523407
12.264536,4.757943546143534,0.1281758629854683
12.266924,4.761532230471526,0.1277694960358301
12.269308,4.762699505172521,0.127441296317983
12.271704,4.764146319127235,0.1270941385848309
12.274092,4.762799636402614,0.1267946670741188
12.276468,4.764525989611048,0.1264267860400609
12.278864,4.768254443565899,0.1260196820321296
12.281247999999998,4.767978696027918,0.1256965669120913
12.283644,4.764350373303161,0.1254627279356861
12.28604,4.767007892071374,0.125084399063731
12.288428,4.7684547060260885,0.1247472603610211
12.290807999999998,4.766688714420887,0.1244859570585473
12.293212,4.765481801323127,0.1241820755067102
12.2956,4.763483492292449,0.1238827305973025
12.29798,4.76176472251549,0.1235610825055284
12.300376,4.755669664193362,0.1232906910588897
12.302764,4.755301368856763,0.1229208961833511
12.305144,4.752371894266305,0.1226329017290196
12.30754,4.747812405981771,0.1224128357067194
12.309928,4.748048515122986,0.1221090556912753
12.312304,4.7529404520630925,0.1217322923113999
12.314699999999998,4.7614172816154525,0.1213097504724294
12.317087999999998,4.768171549675117,0.1209009998588095
12.319484,4.771992551428587,0.1205488169632182
12.32188,4.77804797135395,0.1201955071079342
12.324268,4.780611046465677,0.1199407826074382
12.326648,4.778610841577129,0.1198081203126542
12.329052,4.780195529300834,0.1196290119562195
12.33144,4.78806605851751,0.119312838908468
12.333824,4.789790515868075,0.1191253162269513
12.33622,4.789373102845365,0.1189873749307853
12.338608,4.789607316128713,0.1188558993781061
12.340988,4.792075947583953,0.1187263936481006
12.343384,4.79612737090503,0.1185915462854705
12.345772,4.802692751651721,0.1184378323897887
12.348152,4.812283946503224,0.118282715465687
12.350548,4.823877242101146,0.1180939052915515
12.352936,4.840405904751678,0.1178194913421078
12.355315999999998,4.860007603335265,0.1174861404581457
12.357716,4.875185791545438,0.1172570067934328
12.3601,4.888361879009194,0.1170660099656626
12.362479999999998,4.90111865759237,0.1169084873873207
12.364888,4.919602199161076,0.1166649303877395
12.367272,4.937526662222341,0.1164601900566364
12.369656,4.954939268604409,0.1162381949493427
12.372052,4.975285141292673,0.1159682122473135
12.37444,5.000706150660408,0.1156045323456416
12.37682,5.02226272816217,0.1153015564715022
12.379224,5.042329061596712,0.1150604572343625
12.381612,5.067190992457006,0.1147493265140722
12.383992,5.090981988130663,0.11445877995727
12.386396,5.117054623804456,0.1141129658754311
12.388784,5.136329561306081,0.1138720084413821
12.391164,5.153742167688148,0.1136576074693516
12.393564,5.171294543697076,0.1134369932825858
12.395948,5.191408098959861,0.1131492478079238
12.398332,5.206446517543173,0.1129510838943191
12.400728,5.220553770566709,0.1127685805738463
12.403116,5.231727757284048,0.1126310062520407
12.405496,5.245183384001526,0.1124402627825515
12.407892,5.258639010719003,0.1122495193130624
12.41028,5.270511845570644,0.1120639499846635
12.41266,5.281453514862507,0.1118930813218075
12.415056,5.296678924900924,0.1116409207556252
12.41744,5.31311503975284,0.1113610454927665
12.41984,5.327828593112058,0.1110958325286612
12.422235999999998,5.34175075053836,0.1108368851515644
12.424623999999998,5.362889915017409,0.1104611790310003
12.427004,5.377510920578011,0.1101587707819458
12.4294,5.387476098339722,0.1099104487260082
12.431788,5.401725016847985,0.109585804415665
12.434172,5.416253474609969,0.1092460165029264
12.436568,5.437067773864926,0.1087973552186837
12.438956,5.457370216440683,0.108332027576678
12.44134,5.473016831217549,0.1079181384240719
12.443736,5.477721776702555,0.1076615472664366
12.446124,5.485779297374335,0.1073370519762003
12.448504,5.49118309099364,0.1070357016631431
12.450907999999998,5.502732956479055,0.1066409319578396
12.453295999999998,5.513491426031552,0.1062472110615611
12.455676,5.522806873345075,0.105845646172494
12.458075999999998,5.532401859912316,0.1054270759102113
12.460463999999998,5.540693593867445,0.1049957275584325
12.462844,5.544329500023679,0.1046148637350739
12.46524,5.545823535806637,0.1042717028278375
12.467631999999998,5.546526175656677,0.1039289899788947
12.470012,5.541502052521184,0.103652064351662
12.472407999999998,5.528609296026888,0.1034781876724756
12.474792,5.5206519065852016,0.1032382993199603
12.477172,5.516698718636349,0.1029425200063732
12.479572,5.506878998075107,0.1027208679618221
12.481956,5.496919507887004,0.1025079392299179
12.484352,5.481745111392569,0.1023760900971288
12.486756,5.4672223412041925,0.1022518768330198
12.48914,5.457774707695288,0.1020545059152973
12.49152,5.458477347545326,0.1017105900462459
12.493916,5.459971383328283,0.1013686866949658
12.496299999999998,5.461325649484382,0.1010347276076929
12.498684,5.452809181535256,0.1008264046404684
12.501079999999998,5.441731534332272,0.1006799778844486
12.503467999999998,5.431165743808484,0.1005505013773297
12.505848,5.420180644404116,0.1004473199484921
12.508244,5.405283891305532,0.1004430466212109
12.510632,5.3921096996996445,0.1004290851271943
12.513012,5.378795738466897,0.1004243163150033
12.515408,5.367064569099986,0.1004186596025991
12.517796,5.361851558651523,0.1003483386369803
12.520176,5.360083671188453,0.1002589368891413
12.529756,5.335969706148572,0.1002376994398494
12.532144,5.335365301670757,0.1001747864378133
12.544092,5.328801816781936,0.1001355348795058
12.54648,5.331455543834411,0.1001182478652499
12.54886,5.33867255088716,0.1000124741193179
12.551256,5.350964694619381,0.099838391873842
12.553643999999998,5.363536377605323,0.0996471842160813
12.556024,5.383604606897734,0.0993351645680155
12.558419999999998,5.402462131376646,0.0990485405290353
12.560807999999998,5.42746572772167,0.0986809178318742
12.563188,5.452888632947276,0.0982906998214282
12.565592,5.474586875933765,0.0979366085767702
12.567975999999998,5.49577326224106,0.09756621533401
12.57036,5.516959648548354,0.097193941301549
12.572755999999998,5.543221171535119,0.096753679234162
12.57514,5.567480593775468,0.0963391781047152
12.57752,5.589086288963341,0.0959402731203805
12.57992,5.609900588218298,0.09554603006588
12.582304,5.623917189301085,0.0952254808100164
12.584684,5.636350998518035,0.0949038793087811
12.58708,5.651066447735123,0.0945445571068032
12.589468,5.6679237673254885,0.0941530464498592
12.591848,5.684129460609796,0.0937539918858512
12.594264,5.701406089080741,0.0933424724791316
12.596647999999998,5.720684818298104,0.0929137142370234
12.599028,5.734888410835996,0.0925507368065479
12.601423999999998,5.74722967225433,0.092202106023674
12.603812,5.75421625773947,0.0919337318948455
12.606196,5.767488684717583,0.0915845863916283
12.608591999999998,5.773823643896666,0.0913118913190005
12.61098,5.781089768635527,0.0910348509929022
12.613371999999998,5.788355893374388,0.0907570882473116
12.615772,5.796832722926748,0.090458136316161
12.618156,5.810664228412302,0.0900892138433883
12.620539999999998,5.8266376042711325,0.0896978430209905
12.622936,5.848477512742353,0.0892568917954513
12.625324,5.8735302267734895,0.0887748221487443
12.627707999999998,5.898443171177767,0.0883046973954601
12.630104,5.930153813754211,0.0877757794432228
12.632488,5.962004225957516,0.0872383842670834
12.634868,5.988919271108208,0.0867502748314127
12.637272,6.011830114766067,0.0863008833042908
12.63966,6.034740958423925,0.0858530983395024
12.642039999999998,6.054858305402449,0.08542566484963
12.644436,6.073764947567475,0.0850256227252896
12.646824,6.094813460105778,0.0845995257412999
12.649207999999998,6.122240361935669,0.0841449781875871
12.651604,6.149015637459501,0.083678057340211
12.653992,6.16564063962439,0.0833144443243199
12.656372,6.183057037722196,0.0829509016968972
12.658767999999998,6.195258529513669,0.0826462169787506
12.661155999999998,6.211324453171117,0.0823133295173581
12.663552,6.226039902388205,0.0820107216285066
12.665948,6.235540445298961,0.0817683961234801
12.668332,6.238755146716746,0.0815966998225661
12.670716,6.232797962163606,0.0814703729145857
12.673108,6.226421468729887,0.0813663306836907
12.675496,6.219765436042449,0.0812771411794422
12.677879999999998,6.208174036302398,0.0812278907749784
12.680276,6.204171730667433,0.0811314111411694
12.682664,6.203102691338664,0.081012827229542
12.685047999999998,6.208971119808924,0.0808388594265332
12.687444,6.2156309442121005,0.0806679518170395
12.689832,6.22708636604103,0.0804678792350166
12.692212,6.236539687123544,0.0802854935878048
12.694608,6.243851137832778,0.0801268901423937
12.696996,6.246366991116262,0.0799995160313886
12.699392,6.256611708131693,0.0798237015589962
12.701788,6.275004597759652,0.079576531199545
12.704176,6.2963307536938045,0.0793097434698055
12.70656,6.324734147053848,0.0789850479281409
12.708956,6.347922634107558,0.0787111063301396
12.711344,6.371762747467326,0.0784473263828087
12.713724,6.39718565269293,0.0781887670685436
12.71612,6.423679493105172,0.0779167476663333
12.718508,6.459205449861478,0.0776160982570963
12.720892,6.49645396811048,0.0773168649734396
12.723288,6.53598412635962,0.0769923287777594
12.725676,6.579378716474732,0.0766442044695497
12.728056,6.612111176551704,0.0763669396942046
12.730452,6.642422227001676,0.0761255871704607
12.73284,6.670591407078372,0.0759106107267743
12.735224,6.698760587155068,0.0756972493153927
12.73762,6.7186418249923765,0.075556592578936
12.740008,6.738383293202824,0.0754229375206489
12.742387999999998,6.760126862159688,0.0752747886544461
12.744784,6.783220905556912,0.0751035455871112
12.747172,6.797515150035551,0.0749891933110744
12.749552,6.810878228954412,0.0748807799535464
12.751948,6.819865019328099,0.0747780901990935
12.754336,6.820983176342983,0.074725096182202
12.756736,6.825733447798361,0.0746212654711953
12.759132,6.831973963320958,0.0744880718700836
12.76152,6.837842391791218,0.0743325529774171
12.7639,6.8482741002617535,0.0741246919157616
12.766296,6.852187649813839,0.0739424537546846
12.768684,6.851864680447613,0.0737583963007154
12.771068,6.846466574401916,0.0736110684360888
12.773464,6.837483575743965,0.0734706573545065
12.775852,6.831573613019071,0.0733062169047206
12.778236,6.828504368801753,0.0730894920602582
12.780632,6.821990001599043,0.0728731344142515
12.78302,6.816826108836692,0.0726348905731594
12.785404,6.817156661634395,0.072340518182829
12.7878,6.817906523312677,0.0720269318790585
12.790188,6.82028639868504,0.0716798592267432
12.792568,6.820524403684123,0.0713522225243353
12.794968,6.825837545362681,0.0709895881301558
12.797356,6.828077651108183,0.0706499267529205
12.799736,6.834554275771997,0.0703140458341543
12.802132,6.842893231555366,0.0699690507950984
12.80452,6.852023583271652,0.0696300086737257
12.8069,6.854216467188911,0.0693301931113781
12.8093,6.857340516665948,0.0690283532382213
12.811688,6.853759415769433,0.0687953229889513
12.814068,6.852180415619335,0.0685495818678707
12.816472,6.852323976961934,0.0683040738866836
12.81886,6.856611509424227,0.0680282426276233
12.82124,6.862621603379216,0.0677526976270061
12.823636,6.871425194013541,0.0674696907404512
12.826024,6.875945043901311,0.0672231666650827
12.828404,6.879254188975581,0.0669908156097923
12.830808,6.878698902183879,0.066776053855097
12.833196,6.87735221945926,0.0665580570901098
12.83558,6.8747948319211405,0.0663552063984098
12.837976,6.868605329942525,0.0661983203854213
12.84036,6.861764201657851,0.0660304841121224
12.84274,6.849196310387648,0.0658830881996522
12.84514,6.836907958371164,0.0657222544538199
12.847524,6.824247519302345,0.0655385870934036
12.849904,6.815870820980077,0.0653199803552599
12.852308,6.802418985978339,0.0651315020263983
12.854696,6.79618415802935,0.0648942984794299
12.857076,6.786876294147305,0.0646761762103731
12.859476,6.783202645452173,0.0644020952413141
12.861864,6.779668766383902,0.0641217856987886
12.864244,6.773853247315492,0.0638641737658402
12.866644,6.763381900448192,0.0636168487528194
12.869028,6.755331963207889,0.0633404819364375
12.871412,6.744348759661391,0.0630767883648386
12.873808,6.737229987980867,0.0627979492886956
12.876196,6.734906813726095,0.0625024532868718
12.878576,6.73323526577738,0.0622165937097044
12.880976,6.730213243388306,0.061951463668954
12.883364,6.727470760252953,0.0616730677303236
12.88576,6.72514758599818,0.0613749948623819
12.888156,6.721473937303049,0.061096029983414
12.890543999999998,6.725529152339864,0.0607897715576825
12.89292,6.731586468123095,0.0604743205878412
12.895324,6.734291208719553,0.0601895256027847
12.897712,6.735785244502509,0.0599207093979803
12.900092,6.745706992151715,0.0595963966502637
12.902496,6.753347099800783,0.0592958943123365
12.904884,6.766062344129324,0.0589703651816346
12.907264,6.7746336173381705,0.058670425841226
12.90966,6.784136056106796,0.0583703644637427
12.912048,6.797410378942779,0.0580234329446908
12.914428,6.812267493644596,0.0576849993160665
12.916832,6.823632263532777,0.0573827445434471
12.919216,6.832343306368484,0.0570763954823619
12.921596,6.839192018084634,0.0567730651817585
12.924,6.844318168308089,0.0564673899085818
12.926388,6.847442217785125,0.0561686548172612
12.928767999999998,6.851776972075662,0.055856339650867
12.931164,6.855692417485617,0.0555620677204856
12.933547999999998,6.859188554014992,0.0552858956729179
12.935928,6.869761927970255,0.0549782163934591
12.938327999999998,6.8733978341264885,0.0546974400664724
12.940712,6.875683265842364,0.0544369231932405
12.943092,6.881321272745016,0.0541489325127075
12.945491999999998,6.885376487781832,0.053851114410057
12.947876,6.881003990952398,0.0536040351222694
12.950256,6.876631494122966,0.0533570019646673
12.952659999999998,6.86839456542756,0.053119630844759
12.955047999999998,6.862811363784629,0.0528858468158924
12.957428,6.855086291768421,0.0526654658700873
12.959824,6.846662371617911,0.0524755581610471
12.962212,6.840380321840679,0.0522723760392773
12.964607999999998,6.83852178243686,0.0520377009801736
12.967004,6.842390006018571,0.0517936274024799
13.291947999999998,1.8273175712682603,0.0516138054164509
13.294328,1.7838323292123994,0.0516037084082188
