Time,Force,Position
10.992204,3.3528880524816764,0.1712725822382584
10.994583999999998,3.368341988229832,0.1711814178875001
10.99698,3.380350800992594,0.1711788079347527
10.999368,3.3992045337557686,0.1708316620992785
11.001748,3.421271072078859,0.1703412088505643
11.004152,3.441335509655532,0.1699462527139574
11.006536,3.4675460190983163,0.1693335818104103
11.008916,3.497481190780213,0.1686085143421122
11.01132,3.520199355409362,0.1681403519170208
11.013708,3.5441282248520087,0.1676050983894674
11.016092,3.5773687498924387,0.1667560559796294
11.018488,3.618338138664816,0.1656445669229429
11.020872,3.6670363911691393,0.1642493779820664
11.023255999999998,3.709775563262456,0.1630340236307625
11.025656,3.754144749049852,0.1617309288416989
11.028044,3.7866410999856073,0.1608765594075161
11.030423999999998,3.815552558309109,0.1601304966055434
11.032824,3.8511691670061614,0.1591009716869223
11.035208,3.881757860851987,0.1581795334224573
11.037591999999998,3.907039100592862,0.1574096396461315
11.039988,3.927152655855647,0.1567843639116823
11.042372,3.946335045558655,0.1562053280947892
11.044752,3.969242097500775,0.1555193104919736
11.047156,3.9928007757489534,0.1548476558809057
11.049544,4.014776662131295,0.1542088982352376
11.051923999999998,4.038614879633195,0.1535355590822415
11.054324,4.056958651575041,0.1530881072458529
11.056712,4.072229387583831,0.1527421505737404
11.059091999999998,4.098861101765064,0.15201529520956
11.061483999999998,4.126703520759797,0.151244583503013
11.063871999999998,4.153894313448472,0.1504998984305402
11.066268,4.176521826136871,0.1499415159447886
11.068664,4.195564446213019,0.1494695746030169
11.071052,4.212884504796469,0.1490215100808122
11.073432,4.225688505207888,0.1486727446085066
11.075828,4.247851383045334,0.1480355875193235
11.078216,4.275089397562252,0.1472615462358083
11.080595999999998,4.296832966519117,0.1466833485945926
11.083,4.3213700321553175,0.1460354211093668
11.085384,4.34418453629882,0.1454067347764827
11.087768,4.365928105255685,0.1448143831486834
11.090164,4.382876076786798,0.1443449154062228
11.092548,4.3979617171983545,0.1439211152524944
11.094928,4.410952709064877,0.1435020218795218
11.097332,4.420079269065425,0.1431777450443191
11.09972,4.423618835707305,0.1429826442825464
11.102104,4.427158402349184,0.1427884003942266
11.135547999999998,4.3300150692025765,0.142523788446632
11.137928,4.321264387970103,0.1424874173615248
11.140344,4.316657677857324,0.1423330937164393
11.142728,4.310141414796745,0.1422845322272601
11.145108,4.309771223602277,0.1420675147647223
11.147512,4.313265464273782,0.1417587628886275
11.1499,4.315176913079451,0.1414649798221763
11.15228,4.313596017071483,0.1412927753868979
11.154683999999998,4.3126667473695735,0.1411246547012966
11.157072,4.315042831026198,0.1409146751251046
11.159452,4.3144856483766265,0.1407758967076961
11.161851999999998,4.317792897593029,0.1405468159657833
11.16424,4.322822708302128,0.140293378434524
11.16662,4.326781583824587,0.1400726757697272
11.169016,4.331671624906825,0.1398331138227495
11.1714,4.344570068974731,0.1393975185651668
11.173784,4.359470613789053,0.1389082290096337
11.17618,4.3778162815887685,0.1383694343895934
11.178564,4.404123130545908,0.1377008260580298
11.180948,4.432152540995743,0.1370229671631616
11.183352,4.460833577751637,0.1363459039632763
11.18574,4.485230873760976,0.1357966871644671
11.18812,4.504645580889461,0.1354306650416597
11.19052,4.529275194324279,0.1349291994737318
11.192908,4.552554333318736,0.1344922091582059
11.195288,4.571969040447221,0.1341363686138771
11.197684,4.592454682762344,0.1337517434664897
11.200072,4.611869389890828,0.1333911890591137
11.202452,4.636359233698785,0.1329146339063035
11.204844,4.660337220827544,0.1324273667756616
11.207232,4.688738718329717,0.1318142327983471
11.209628,4.712204848779279,0.1313139296988082
11.212024,4.732318404042064,0.1309122145401756
11.214412,4.751221254491352,0.1305488633388077
11.216792,4.771474579380997,0.1301395065998642
11.219188,4.784138810165556,0.1298811871956987
11.221572,4.796942810576975,0.1296120798059365
11.223956,4.810677976548172,0.1293324885436535
11.226352,4.8188261491607,0.1291517237898686
11.22874,4.819385227668141,0.1291080872681164
11.23112,4.822505485429439,0.1289791136456547
11.233524,4.826976217631097,0.1288015861354383
11.235912,4.8332167331536935,0.1285419753531664
11.238292,4.836384212743235,0.1283532866743487
11.240688,4.835687260466804,0.1282376755460504
11.243076,4.841276149683344,0.1279763187194402
11.245456,4.845514564459523,0.1277622562512381
11.24786,4.853757180728539,0.1274648479425384
11.250248,4.857855825877857,0.1272640758063654
11.255024,4.852550267630776,0.1271655285533054
11.257412,4.853156567966462,0.1270634204621882
11.259792,4.853111241996087,0.1269543844237521
11.262188,4.857489426399128,0.126732130753726
11.264576,4.858934344495973,0.1265664301366146
11.266956,4.862241593712374,0.1263701107824291
11.269356,4.867271404421473,0.1261556984187816
11.271744,4.866574452145041,0.1260412383561604
11.27414,4.870021470988303,0.1258369102040382
11.276535999999998,4.882408058377011,0.1254599733700137
11.278923999999998,4.894654876138859,0.1250995304935488
11.281304,4.907553320206765,0.1247473522374813
11.283699999999998,4.921243160207589,0.1243935492220921
11.286084,4.936283474648771,0.1239971666959176
11.288464,4.954396825023009,0.1235369859134529
11.290867999999998,4.968366204277554,0.1231699696032439
11.293256,4.983546288345596,0.1227677657901133
11.295636,4.9968640412940815,0.1223958612977583
11.29804,5.00939039830965,0.122026724847707
11.300423999999998,5.024989791258273,0.1215927676583693
11.302804,5.048737356819424,0.1210026074970154
11.305208,5.066618389768185,0.120518422255025
11.307595999999998,5.089574559396419,0.1199399183627215
11.309976,5.107315822718319,0.1194718905335001
11.312371999999998,5.124777546786499,0.1190213671843893
11.314756,5.1420995012278174,0.1185813860761497
11.31714,5.155696793430024,0.1181945081367104
11.319536,5.174089683057984,0.117730321149109
11.369732,5.065441810396333,0.1175729117721598
11.372116,5.062835305172102,0.1175438542683629
11.3745,5.059157864761231,0.1175371048030414
11.376896,5.063349057709167,0.1174033165542802
11.37928,5.074337948829273,0.1171673832156204
11.381664,5.091984768494688,0.1168361246678296
11.38406,5.112285315212577,0.1164775605747332
11.386448,5.131794465997547,0.1161176461374461
11.388827999999998,5.149441285662961,0.1157872241178454
11.391224,5.166948335701516,0.115469668552592
11.393608,5.188878896113485,0.115059159631923
11.395991999999998,5.21295132689873,0.1146159165706644
11.398396,5.237675383990033,0.1141787482402685
11.40078,5.265752016268111,0.1136686188389703
11.403164,5.29503935335969,0.1131307935373703
11.40556,5.32367506414521,0.112591572762087
11.407948,5.349377508624534,0.1120990065108294
11.410327999999998,5.377361593103997,0.1115607530897556
11.412732,5.401061936836904,0.1111113962849306
11.415116,5.428626712435785,0.1106070105999535
11.417495999999998,5.460195689527501,0.1100401947297199
11.419904,5.48883140031302,0.1095218842285815
11.422288,5.524544348524429,0.1088978443788784
11.424672,5.55345959856367,0.108376571777763
11.427075999999998,5.574645984870964,0.1079594292174464
11.42946,5.59410980968556,0.1075583797613141
11.431844,5.613992943380738,0.1071341273414468
11.43424,5.638020048195608,0.106644970735141
11.436624,5.6593934259580045,0.1061770154524899
11.439008,5.678904472600845,0.1057297130493086
11.441404,5.694411317750852,0.1053426321438169
11.443792,5.702980695101829,0.1050509229631982
11.446172,5.7099672805869695,0.1047598038069282
11.448568,5.720818297938085,0.10442742865234
11.450956,5.728456509729285,0.1041485891928813
11.453335999999998,5.731810980773929,0.1039409234370327
11.45574,5.736236387005213,0.1037151002028597
11.458128,5.736657591743662,0.1035444170184112
11.460508,5.735496004616277,0.1033746590670336
11.462904,5.734753726369471,0.1031797155124096
11.465292,5.731357721070189,0.1030040349211342
11.467672,5.724237053531796,0.1028643090490452
11.470068,5.710458457448095,0.1027965223696058
11.472456,5.693886364685056,0.1027564387183417
11.474835999999998,5.680527077481935,0.102662527662728
11.477232,5.667447329532536,0.1025505032231182
11.47962,5.6540880423294135,0.1024549057404732
11.482,5.640728755126291,0.1023580427016668
11.484395999999998,5.631094130162283,0.1022257425868454
11.486783999999998,5.62439277150447,0.1020589171570893
11.48918,5.620624679152852,0.1018580778904812
11.491583999999998,5.620860788294068,0.1016055734760478
11.493968,5.626032264487896,0.1012945562152367
11.496348,5.619982532136141,0.1011353363897628
11.498751999999998,5.617145605344302,0.1009251421062083
11.50114,5.620734289672294,0.1006136643477122
11.50352,5.624043434746564,0.1003192708964378
11.505916,5.632008407619727,0.0999837295601562
11.508304,5.644489438664921,0.0996162014763358
11.510684,5.657342556762453,0.0992770971667222
11.51308,5.670847301166041,0.0989462430047566
11.515468,5.6911497437418,0.0985420162035583
11.517848,5.713966143743173,0.0981297730160779
11.520252,5.741298601916577,0.0976820888070615
11.522636,5.7682117512094,0.0972610399080284
11.525016,5.7909809293825285,0.0968973203099611
11.52742,5.814681273115437,0.096529082537205
11.529808,5.83423764572865,0.0962192057558212
11.532188,5.851000521662529,0.0959353150530407
11.534588,5.863759196103574,0.0957001254983247
11.536976,5.871722273118868,0.0955126502323171
11.53936,5.878614414947524,0.0953420742275805
11.541756,5.880431420096707,0.0952354230219611
11.54414,5.8906761371121386,0.0950078531857695
11.546524,5.899989688567791,0.0947893075812036
11.54892,5.907161369650167,0.0946050920005345
11.551308,5.9154039859191805,0.0944057933754115
11.553688,5.918059608829524,0.0942515251534182
11.556084,5.9143368424482805,0.0941410455100827
11.558472,5.905958248268145,0.0940676666417151
11.560852,5.899721524461286,0.0939631724176778
11.563248,5.890411764721373,0.0938965060158738
11.565636,5.878448277928984,0.0938434362714065
11.568015999999998,5.866904100017175,0.0937657492132605
11.570416,5.854568526172449,0.0936870860120803
11.5728,5.848239254566973,0.09354119295201
11.575179999999998,5.838185320722384,0.0934235777747654
11.577588,5.827991617250935,0.0933138808788309
11.579972,5.818589309712404,0.093204680027143
11.582356,5.814262138853345,0.0930355359299727
11.584752,5.8125886950467605,0.0928522965655429
11.58714,5.813057121613453,0.0926394744317611
11.589519999999998,5.816598584113202,0.0923891429938623
11.591924,5.817858406612813,0.0921781119764545
11.594312,5.821120329858841,0.0919464962189955
11.596692,5.821448986798674,0.0917431592968083
11.599096,5.822057182992228,0.0915248631395135
11.601484,5.8265298110517545,0.091271263982445
11.603864,5.836449662843091,0.0909847348349253
11.606264,5.851444651313899,0.0906408244574202
11.608648,5.8608526464260375,0.0903368164663507
11.611032,5.870260641538176,0.0900332076811656
11.613428,5.881950276650453,0.0896922511058453
11.615816,5.893500142135869,0.0893617435654692
11.618196,5.911196079487395,0.0889655839970616
11.620592,5.922094318666753,0.0886299680188278
11.62298,5.936065593779166,0.0882600334660649
11.62536,5.956462480011411,0.0878085008966584
11.627756,5.978070071057154,0.0873376517411467
11.63014,5.998606726916259,0.0868871594510262
11.63254,6.022495957962141,0.0863925467387434
11.634935999999998,6.043451922701825,0.0859260484816514
11.637323999999998,6.066409988187927,0.0854461092011311
11.639704,6.091370154420447,0.0849504838063821
11.6421,6.11325728471991,0.0844890929697591
11.644488,6.136215350206012,0.0840130649464158
11.646872,6.158242250132336,0.083545750018898
11.649268,6.180408919685519,0.0830746557333849
11.651656,6.199782092559368,0.0826211596220066
11.65404,6.2171531646868,0.0821888129065399
11.656436,6.239040294986264,0.0817362352417194
11.658824,6.260136029352809,0.0812816983849087
11.661204,6.280672685211914,0.0808581230130912
11.663607999999998,6.298276074764823,0.0804575494494431
11.665995999999998,6.304658255772151,0.0801648123483023
11.66838,6.315696264578369,0.0798453499694713
11.670775999999998,6.327385899690645,0.0795381219498976
11.673163999999998,6.334931563683226,0.0792758724188259
11.675544,6.343268623608727,0.0790181682105189
11.67794,6.34387681980228,0.0788118355980531
11.680328,6.340341044876141,0.0786468675190523
11.682712,6.337317126629197,0.0784987055147606
11.685107999999998,6.328286906143004,0.0784001898820871
11.687496,6.3201878512165885,0.0782972031958291
11.689876,6.314882292969508,0.0781806489235389
11.692279999999998,6.313441166588402,0.0780393869411072
11.694664,6.310789335393795,0.0779165869391186
11.697044,6.306787029758832,0.0778195338968684
11.699448,6.308791026363117,0.077676311996883
11.701835999999998,6.313448750019878,0.077528368748375
11.704212,6.317175308116861,0.0773849746105322
11.706616,6.325557694012735,0.0772222374998198
11.709003999999998,6.33394007990861,0.0770595003891075
11.711384,6.348188998416874,0.0768600366846035
11.713779999999998,6.370166780657086,0.0766121382400578
11.716167999999998,6.39614876439013,0.0763386552574719
11.718548,6.418406085884062,0.0760816781259831
11.720944,6.438381767377856,0.075852557657873
11.723332,6.453422081819038,0.0756570134883084
11.725712,6.4759117207384485,0.0754280098826866
11.728112,6.498401359657858,0.0751986490185608
11.730496,6.519447976338292,0.0749557771849128
11.73288,6.543567628951779,0.0746859364925102
11.735276,6.563962619326154,0.0744343150702217
11.737664,6.580772717088276,0.0741922725883769
11.740059999999998,6.595301174850261,0.0739810733805536
11.742456,6.610621028545164,0.0737727413760232
11.744844,6.6299450837329,0.0735375567398148
11.747224,6.640329570375191,0.0733646315450148
11.749619999999998,6.648339869218727,0.0731839002512736
11.752007999999998,6.657421103248901,0.0729934848103017
11.754388,6.6637088405997424,0.0728156710982762
11.756792,6.67348892276422,0.072595692930056
11.75918,6.677402472316305,0.0724103905184224
11.76156,6.683225574816191,0.072177904580942
11.763956,6.682390748770769,0.0719756477309542
11.766343999999998,6.683558023471763,0.0717601205283766
11.768724,6.687938103732673,0.071515308680961
11.771119999999998,6.697113781419334,0.0712479100996679
11.773507999999998,6.70470666724016,0.0709748467640117
11.775888,6.713230718620763,0.0706985191562955
11.778284,6.726410597800259,0.0704078185157151
11.780672,6.740242103285811,0.0701278648479742
11.783064,6.752723134331006,0.0698693387089965
11.785468,6.767997662055534,0.0696020035840564
11.787856,6.777685196421393,0.0693512827396813
11.790235999999998,6.791516701906946,0.0690710645109171
11.792632,6.800692379593608,0.0688076203774372
11.79502,6.813592719519383,0.0685306904124106
11.797399999999998,6.825002815377937,0.0682829662228721
11.799796,6.833479644930297,0.0680505745270166
11.802184,6.838231812243546,0.0678295427331212
11.804564,6.838700238810238,0.0676468175034522
11.806968,6.8431728668697644,0.0674402560778428
11.809356,6.842011279742379,0.0672930778688345
11.811735999999998,6.84150131892105,0.06715554235904
11.81414,6.842062293286361,0.0670092370043489
11.816528,6.841831871718752,0.0668595003007395
11.818908,6.839878888658447,0.0667089802689812
11.821304,6.84020754559828,0.0665349731932404
11.823688,6.843888777724889,0.0663295069541955
11.826068,6.844776513172163,0.066132246597906
11.828464,6.84436099600732,0.0659147888883361
11.830851999999998,6.847298054029254,0.0656652023800818
11.833232,6.847441615371854,0.0654223859879903
11.835632,6.854522644513481,0.0651440700962776
11.838015999999998,6.8549457451098,0.0648884979030066
11.8404,6.854437680146341,0.0646342983046878
11.842804,6.854348924063462,0.0643614577595268
11.845187999999998,6.855470872794082,0.0640736754252588
11.847568,6.860736792644396,0.0637590318571865
11.849972,6.8707983099204615,0.0634278594349543
11.85236,6.879928661636749,0.0630976464784325
11.854739999999998,6.88705691260662,0.0627794190997965
11.85714,6.8972581995095466,0.0624424721529732
11.859528,6.90960135678575,0.0620893667360181
11.861907999999998,6.921944514061953,0.0617383795749526
11.864312,6.933216736151517,0.0613958975069551
11.8667,6.943837331935025,0.0610433975722478
11.869084,6.953107453278171,0.0607137928930848
11.87148,6.957162668314987,0.0604186114127483
11.873864,6.962568357792161,0.0601045416261773
11.876243999999998,6.970627774321811,0.0597930004906461
11.87864,6.975893694172124,0.0594864296258482
11.881028,6.985024045888411,0.0591683502847915
11.883408,6.995085563164478,0.0588518797818945
11.885812,7.010873843426075,0.0585217959018488
11.8882,7.028384685180368,0.0581946224903437
11.890579999999998,7.046966462121298,0.0578621003962594
11.89298,7.064617073502451,0.0575312911123512
11.895368,7.082267684883604,0.057204039171297
11.897747999999998,7.09670549070484,0.0568991732379898
11.900152,7.115287267645773,0.0565729126564172
11.90254,7.131587404586565,0.0562659975426972
11.90492,7.147887541527359,0.0559607128432611
11.90732,7.163675821788954,0.055640649436695
11.909704,7.177462001304133,0.0553294122356447
11.912088,7.1949728430584265,0.0550158217924585
11.914484,7.214857872611473,0.0547183090637031
11.916872,7.231809635858325,0.0544295906732729
11.919251999999998,7.2495527950380945,0.054144802488594
11.921656,7.265665940523784,0.0538913405505679
11.924044,7.277635114889781,0.0536591953772792
11.926424,7.292258016308252,0.0534308392072717
11.928824,7.304878816980307,0.0532112069660233
11.931212,7.310562149853333,0.0530141807605571
11.933592,7.314383151606801,0.0528200428618337
11.935992,7.317552527054212,0.052615115062874
11.93838,7.320302593621042,0.0524281460924305
11.94076,7.327336400934425,0.0522172348391157
11.943156,7.334090668994092,0.0520192343618249
11.945544,7.343126577053892,0.0518036702075569
11.947924,7.346947578807361,0.0516130131338869
11.95032,7.358404896494159,0.051375922010474
11.952708,7.365997782314985,0.051145769377862
11.955087999999998,7.370889719255092,0.0509497589505307
11.957492,7.3756418865683395,0.050759079862323
