Time,Force,Position
15.391056000000006,3.3029262578476364,0.1642181720442463
15.39345200000001,3.320338864229704,0.1636846124994768
15.395840000000009,3.3437577728510224,0.1629209431691675
15.398224,3.364103645539285,0.1622885809717987
15.400620000000004,3.390408598638555,0.1615226271396356
15.403008,3.4101481709911337,0.1610538035985803
15.405392000000006,3.435055427821802,0.160458159593627
15.407796000000005,3.4669927002501164,0.1596920683566805
15.410184,3.5030267219698814,0.158829788097894
15.412568000000007,3.5392930611151234,0.1579820630828163
15.414972000000006,3.5768626528724807,0.1571485206408017
15.417356000000012,3.616434345376255,0.1562727623464506
15.419740000000004,3.6645735193731386,0.1550416686888453
15.422136000000007,3.703540807399099,0.1541081382971474
15.424524000000003,3.741204842812943,0.1531927616661549
15.426908000000012,3.777006547107231,0.1523450043716348
15.429304000000002,3.801075186176737,0.1519138154123167
15.431692000000012,3.831429666739216,0.1512597702462471
15.434072,3.867790449540944,0.1503872605822082
15.436468000000003,3.903871693088952,0.1495558461460851
15.438856,3.9395336277563793,0.1487828885187117
15.441240000000008,3.966767850557559,0.1483384309269333
15.443636000000012,3.989578562985324,0.1480639951454526
15.446024000000008,4.009176469853172,0.1478948610273983
15.448408,4.023327152989212,0.1478602057574156
15.450804000000003,4.043623907991362,0.14762551081087
15.453196000000004,4.064339971874094,0.1473592282854107
15.455576000000008,4.080679747211653,0.1471909266152904
15.457976000000002,4.096787205123736,0.1469797817336062
15.460364000000013,4.1225330797155655,0.1464537881579709
15.462744,4.148186406508779,0.1458794119844138
15.465140000000003,4.171605315130096,0.1453355557640344
15.467528,4.191579100766021,0.1448694307265717
15.469912000000008,4.214625922335002,0.1443112138422443
15.472308000000012,4.232597607224511,0.1438908774964487
15.4747,4.253223019166494,0.1434269952777706
15.47708,4.2766419277878125,0.142901770093828
15.47948000000001,4.2960566349162965,0.1424920849255142
15.481868000000006,4.314400406858144,0.1421174189283915
15.484252000000012,4.330369991001235,0.1417652111916548
15.486648000000002,4.346247027345709,0.141363888046119
15.489036,4.363893847011123,0.1408706307068404
15.491420000000003,4.385964177049952,0.1402393325672031
15.49381600000001,4.411387082275556,0.1394859011464027
15.496204000000006,4.441093728247714,0.1386081644135187
15.498584000000008,4.466144546420981,0.1378425882813206
15.500984000000004,4.487610471981996,0.1371504398437779
15.503372,4.507214066423452,0.1364954075956433
15.505752,4.526538121611188,0.1358676849221971
15.50815200000001,4.536503299372899,0.1355034670631077
15.510540000000006,4.547120103440667,0.1351504062006911
15.512924000000012,4.555874576388879,0.1348371742154157
15.515320000000004,4.560485078217397,0.134631076868424
15.517708,4.565747206351972,0.1344315326333178
15.520092000000004,4.578226341539297,0.1340498111993053
15.52248800000001,4.590473159301145,0.133636317609
15.524876000000006,4.60062532851796,0.133219726391865
15.527260000000012,4.610125871428715,0.1327959946191034
15.529656000000005,4.622047823966469,0.1322967089997079
15.532044,4.635552568370057,0.131785313680025
15.534428000000004,4.646263816094312,0.1313270549811112
15.58702000000001,4.507454141898894,0.1313108856017861
15.589408000000006,4.507361594100277,0.1312599222173393
15.591788000000008,4.51271627003347,0.1311241535053971
15.594184000000013,4.521935377832637,0.1309155111729463
15.596572000000007,4.528640528206189,0.1307342600388457
15.598956,4.53930265824433,0.1305312587291589
15.601352000000006,4.554900155335084,0.1302268115369181
15.603740000000002,4.5727792924259765,0.1298574982817562
15.606120000000004,4.5965249621292585,0.1293697861018978
15.608516000000009,4.6186406181384605,0.1289510793850559
15.610908000000007,4.6415476700805804,0.1285239773570723
15.613288000000011,4.665757974634817,0.1281127912726628
15.615684000000002,4.695742264002826,0.1275350441865832
15.618072000000012,4.729730754863669,0.126880112530073
15.620456000000004,4.763859015351373,0.1262151212090081
15.622852000000009,4.799757059160016,0.1254759960803161
15.625240000000003,4.832861606289324,0.1247742174060486
15.627624000000012,4.864103822299075,0.1241058236544357
15.630024000000006,4.89320416793555,0.1234968796649069
15.632408000000012,4.91229400983994,0.1231002265844706
15.634792000000004,4.927891506930695,0.1228050139549677
15.637192,4.943628773648308,0.1225046108677812
15.63958000000001,4.957923018126947,0.1222061379938806
15.641960000000012,4.971286097045807,0.1219283148749775
15.644356000000002,4.984369636710947,0.1216720937313559
15.646748000000002,4.992937118204056,0.1214758781409357
15.649132000000009,5.0008529733911065,0.1212751900510368
15.651528,5.007837663018379,0.1210893503902157
15.65391600000001,5.011749316712596,0.120966102223264
15.656296000000012,5.017430753727752,0.1207669976214989
15.658696000000006,5.023671269250349,0.1205267142174602
15.661080000000013,5.02888807141455,0.1202538645718551
15.663464000000005,5.029821132832198,0.1200773649198369
15.665864,5.028332784622847,0.1199689930482677
15.668248000000006,5.027775601973275,0.1198477087499772
15.670632000000012,5.024005613763787,0.1197955594581275
15.673028000000002,5.026241927793551,0.1196357526026277
15.675416000000013,5.027267537009816,0.1195080821028135
15.677796,5.030295246972498,0.119345049662049
15.6802,5.039469028801291,0.1190626182905787
15.68258800000001,5.049993285070441,0.1187357582008244
15.684972000000002,5.054511239100342,0.1185171437713052
15.687368000000006,5.059960358690021,0.1182877070036587
15.689756000000004,5.060194571973367,0.1181630256955575
15.692140000000007,5.059637389323796,0.1180411284110942
15.694536,5.0613618466743615,0.1178622774424808
15.69692400000001,5.060013268091873,0.11774282225896
15.699304000000012,5.061597955815578,0.1175751706423524
15.701704000000008,5.0639740394722015,0.117404164346677
15.704092000000005,5.066070583875104,0.1172536113661189
15.706472000000003,5.071100394584202,0.1170565650845135
15.708872,5.073289486785722,0.1169540142718503
15.71126000000001,5.077480679733659,0.1168161643086014
15.713640000000012,5.0799493111889,0.1166936494983315
15.716040000000008,5.08227817301728,0.1165817215281777
15.718428000000005,5.084467265218801,0.1164791707155144
15.720808000000003,5.083723091114126,0.1164249936722596
15.72320400000001,5.088193823315784,0.116269299616513
15.72559600000001,5.092804325144302,0.1161057732407378
15.727976000000012,5.092339690293348,0.1160323547995193
15.730376000000009,5.094808321748588,0.1159135957307355
15.732764000000005,5.104074651375997,0.1156906705751013
15.735144000000004,5.107986305070215,0.1155763010475309
15.73754000000001,5.116041929884124,0.1153828801760859
15.73993200000001,5.12568034656387,0.1151845792623712
15.742312000000013,5.1369015551094535,0.1149831938528832
15.744708000000005,5.154920461827205,0.1146811040613422
15.747096,5.167864231865484,0.114468872450066
15.749480000000004,5.182949872277041,0.1142151349435872
15.75187600000001,5.19589364231532,0.1140029033323111
15.754264000000006,5.201620405300851,0.1139219218080238
15.756648000000013,5.209908347540238,0.1137676964130004
15.759044000000005,5.214192088286792,0.1136803742041624
15.761432,5.216613497913789,0.1136165224203471
15.763816000000006,5.218103741981009,0.113565055887692
15.76621200000001,5.224808892354561,0.1134148898606231
15.768600000000006,5.231094733847533,0.1132938002427075
15.773380000000005,5.236309640153865,0.1131966241070846
15.780552,5.24059338090042,0.1131106445919818
15.78294000000001,5.243434099407997,0.1130204553699329
15.78532,5.242270616422742,0.1129957620182889
15.787720000000007,5.240735046385148,0.1129443341950106
15.790108000000004,5.240689720414774,0.1128439829606823
15.79249200000001,5.233846696272232,0.1128410889214487
15.794888,5.230356247316465,0.1127670151387952
15.79727600000001,5.225003467241141,0.1127150495025968
15.799660000000005,5.228730025338123,0.1125194035745993
15.802056000000007,5.241396151980551,0.11219030719395
15.804448000000008,5.255784840115677,0.1118516147645164
15.80682800000001,5.273246564183857,0.1114594636543081
15.809228000000004,5.294712489744871,0.1110041332624064
15.811616,5.315387019372967,0.1105496426222857
15.814000000000007,5.3309864123215895,0.1101812504697647
15.816396000000012,5.346213718217875,0.1097856916185206
15.818784000000008,5.359159384114024,0.109441244883643
15.82116400000001,5.376528560383586,0.1090066157283979
15.82356,5.392035405533593,0.108598876179977
15.825948000000013,5.412617387363072,0.1081106387167309
15.828332000000003,5.431197268446134,0.1076538358010431
15.830728000000008,5.448566444715696,0.1072284011120326
15.833116000000004,5.475014959157566,0.106670499994635
15.83550000000001,5.503186035092132,0.1061072256849444
15.837900000000005,5.524279873600808,0.1056508365685594
15.840284000000011,5.54751558248276,0.1051550084343374
15.842668000000003,5.568749190618297,0.1046905611719058
15.845068000000012,5.590122568380693,0.1042185512240535
15.847456000000008,5.604698247970922,0.1038417072360709
15.84983600000001,5.613686934202479,0.1035254237956543
15.852232,5.62337446856834,0.1031702634083191
15.854620000000011,5.634272707747696,0.1027906615830521
15.857,5.644239781367277,0.1024217545102429
15.859400000000008,5.657419660546772,0.1020029899897743
15.861788000000004,5.671018848606847,0.1015577433019188
15.864168000000006,5.685828741480422,0.1010876751445343
15.866564000000013,5.6982644465552434,0.1006155706592297
15.868956000000011,5.707627115697008,0.1001870611709339
15.871340000000004,5.716058619278994,0.099769027272841
15.873736000000008,5.720625690995008,0.0993945170721448
15.876128000000008,5.726403467524519,0.0989943975562599
15.87850800000001,5.731389848121112,0.098594090091407
15.880908000000003,5.727716199425981,0.0982888551055884
15.883296,5.720038349238015,0.0980336772111343
15.885676000000004,5.717156096475803,0.0977272812988899
15.888076000000012,5.716136174833145,0.0974054559484047
15.890468000000013,5.716838814683184,0.097075849279747
15.892852000000005,5.718612389719863,0.0967307721952178
15.89524800000001,5.717452698450345,0.0964170413335323
15.897636000000006,5.716293007180828,0.096102553261665
15.900020000000012,5.707357230351121,0.0959199068487795
15.902420000000006,5.698421453521414,0.0957370784343654
15.904808000000004,5.692139403744182,0.095539268840368
15.907196,5.681713382847254,0.095397384339903
15.909596000000008,5.672870153816164,0.0952562066802199
15.911984000000004,5.664399011837413,0.0951402543573181
15.914372,5.662585798403968,0.0949628734757036
15.916772000000009,5.665568182396277,0.0947402085730161
15.919160000000003,5.666268926388446,0.0945565993523048
15.921548,5.670042706313672,0.0943339880582946
15.923944000000006,5.674607882171816,0.09411315851865
15.926336000000006,5.680755849895795,0.0938942738523932
15.928720000000013,5.689417775045389,0.0936686694230018
15.931120000000009,5.699010865754763,0.0934341518168364
15.933508000000003,5.709674891650774,0.0931861483144723
15.935896,5.719407751987006,0.0929478193397259
15.938296000000008,5.730071777883019,0.0927042628933424
15.940684000000005,5.737662767845974,0.0924985053985898
15.943072,5.746836549674767,0.0922930411180734
15.94547200000001,5.758524288929173,0.0920833110137825
15.947860000000006,5.777429035236329,0.0917803069799254
15.950248000000002,5.796054242289766,0.0914964501071531
15.95264800000001,5.81002362154431,0.0912492762539024
15.955036000000009,5.829579994157523,0.0909617848603699
15.957432000000011,5.848344970837819,0.0906748673687924
15.959832000000006,5.867389486771837,0.0903738809612604
15.962220000000002,5.884431901959435,0.0900999533281102
15.96462000000001,5.89760988528106,0.0898623005041475
15.967020000000003,5.914140443789461,0.0895733173139937
15.969408,5.929320527857505,0.089315960042255
15.97180800000001,5.946362943045105,0.089049174976591
15.974224000000008,5.963824667113284,0.0887611226895364
15.976612000000005,5.982636865621823,0.0884451088849068
15.979012000000012,6.00401024338422,0.0880796776637271
15.981412000000006,6.022590124467282,0.0877347618945767
15.983800000000002,6.043032336669901,0.0873820140453935
15.98620000000001,6.060820821820044,0.0870411437806405
15.988596,6.081542573276384,0.0866751899281806
15.99099600000001,6.10454596473286,0.0862749597626387
15.993392,6.12638587320408,0.0858520075032506
15.995784,6.149296716861938,0.0854219442953706
15.998184000000007,6.172207560519798,0.0849943412594164
16.00057600000001,6.197120504924075,0.0845475049890228
16.002964000000006,6.216446455969681,0.0841363988340485
16.005364,6.235492867761566,0.0837408048328562
16.007760000000005,6.253608113993673,0.0833526573407347
16.010148,6.268929863546446,0.0829825018032921
16.012532000000007,6.284251613099218,0.0826115028232207
16.014928000000012,6.298362657838492,0.0822622706801319
16.017316000000008,6.313544637764403,0.0819013161728506
16.01969600000001,6.322999854704785,0.0815797685650647
16.022096000000005,6.331244366831669,0.081279276766597
16.024484,6.336276073398636,0.0810160529870026
16.026864000000003,6.338467061458025,0.0808144506081778
16.029264000000012,6.343172006943028,0.0806127657926865
16.03165200000001,6.339216923136307,0.0804703783312329
16.034036,6.33912627119556,0.0803011572873069
16.036432000000005,6.340897950374368,0.0801233605534753
16.03882,6.342949168806897,0.0799321299478975
16.041204000000008,6.3410887335452095,0.0798120607561461
16.043600000000012,6.33415316160405,0.0797373438667306
16.045992000000012,6.322282222610279,0.0797007331008378
16.048372,6.311202679549426,0.0796661747374175
16.05077200000001,6.302125237234989,0.0796146868572128
16.053160000000005,6.2951896652938295,0.0795393543887898
16.055544000000012,6.289045489285588,0.0794664357497481
16.057940000000002,6.281550838836987,0.0794194775965475
16.060328000000013,6.277641081000638,0.0793612092879509
16.062708,6.275593654283848,0.079293880955975
16.065104000000005,6.274756932380557,0.0792081350255512
16.067496000000006,6.277505103089517,0.0791113142284608
16.069880000000012,6.278111403425202,0.0790374481715398
16.072276000000002,6.283513301186637,0.0789341585151328
16.074664000000013,6.294409644508125,0.078767003283249
16.077048000000005,6.303723195963778,0.0785954823842896
16.07944400000001,6.320625841524517,0.0783802961929512
16.08183600000001,6.332173811152064,0.0782231931832908
16.084216000000012,6.339717579286777,0.078098528571657
16.086616000000006,6.342558297794355,0.0780403860706922
16.089004000000003,6.352895562608403,0.0779026815220958
16.09138800000001,6.366166093728646,0.077744750648237
16.093784,6.3874450278345565,0.0775242915257319
16.09617200000001,6.40700140044777,0.077306245876678
16.098556000000002,6.427349168993903,0.077092203771758
16.10095600000001,6.44476367123384,0.0768990544023868
16.103344000000007,6.460315842354221,0.0767147389983079
16.10572400000001,6.47693894866124,0.0765178325907736
16.108124000000004,6.491327636796364,0.0763075044001564
16.110512,6.502131432319235,0.0761072656629228
16.112896000000006,6.51079335746883,0.0759303535838966
16.11529200000001,6.518663886685506,0.0757509732604998
16.11768400000001,6.532960027022013,0.075507571184855
16.120064,6.544602440306046,0.0752709105412612
16.122464000000008,6.54916761616419,0.0750895195661219
16.124852000000004,6.553872561649193,0.0749017450186968
16.12723600000001,6.556715176014641,0.0747222057125593
16.129632,6.563189904820585,0.0744905907950954
16.13202000000001,6.570875338440028,0.0742415255184997
16.134404000000004,6.584194987246383,0.0739259070958051
16.136800000000008,6.591508333813488,0.0736545945021378
16.139188000000004,6.598030284447677,0.0733809581466565
16.14157200000001,6.5986857024694725,0.0731433430568797
16.143968,6.600272286051046,0.0729021105606572
16.14635600000001,6.600276077766784,0.0726546657970401
16.148740000000004,6.601350804669161,0.0723968772253566
16.151140000000012,6.606429733064371,0.0721131806848972
16.15352800000001,6.616863337392775,0.0717815481484767
16.155912,6.627017402467458,0.0714641921362189
16.15831200000001,6.638102633101919,0.0711427765710866
16.160700000000006,6.647325532616824,0.070827200044551
16.163084000000012,6.6599010073185045,0.0704781179565624
16.165480000000002,6.667261575713853,0.0701734543359038
16.167868,6.676903784109338,0.0698451071910656
16.170252000000005,6.690689963624516,0.0694847265009924
16.17264800000001,6.702334272766418,0.0691430666869569
16.175036000000006,6.711324854855845,0.0688026751044303
16.177416000000008,6.719244501758634,0.0684733119346122
16.179816000000002,6.72916624940784,0.0681335348169944
16.182204,6.737085896310629,0.0678078504237093
16.184584,6.747799039892752,0.0674738218371868
16.186980000000005,6.757720787541958,0.0671363645294673
16.189372000000006,6.7728574414974965,0.0667615499106027
16.191752000000008,6.789856426572592,0.0663836133433052
16.194152000000003,6.806436102767106,0.0660244931439003
16.19654,6.821013678215204,0.0656764737364065
16.198924000000005,6.830655886610689,0.0653551114799395
16.20132000000001,6.831218756833868,0.0650880555231757
16.203708000000006,6.82977952631063,0.0648316951327071
16.206092000000012,6.832204727653366,0.0645603952152411
16.208488000000003,6.8358406338096005,0.0642731206793824
16.210876,6.834121864032642,0.0640300606300854
16.213260000000005,6.832403094255685,0.0637864107958313
16.21566,6.8262608141053125,0.0635837497537001
16.21804800000001,6.817976663581666,0.0633981480644019
16.220428000000013,6.812625779364211,0.0631993063468124
16.222824000000003,6.8119307229456485,0.0629894342797195
16.225216000000003,6.808954026526949,0.0628024890214068
16.227596000000005,6.800902193428776,0.0626449986351924
16.229996,6.793501986636661,0.0624981764605135
16.23238400000001,6.786521088725128,0.0623325413169974
16.234768000000003,6.782054148239208,0.0621736998044234
16.237164000000007,6.77609696368607,0.0620426945456352
16.239552000000003,6.768277448013375,0.0619155862543038
16.24193600000001,6.766604004206791,0.0617534801035176
16.244336000000004,6.768934761893039,0.0615720927513123
16.24672000000001,6.775269721072123,0.0613717263010728
16.249104000000003,6.790404479169792,0.0611375023090517
16.251512000000005,6.809543438760294,0.0608849698732049
16.2539,6.827891002417879,0.0606313828745508
16.256284000000008,6.849823458687716,0.0603794421260928
16.258684000000002,6.872826850144193,0.0601189384671807
16.261072,6.896761407160447,0.0598569907804208
16.263456000000005,6.923629230482897,0.0595841533057976
16.26585200000001,6.954641024925041,0.0592893552917078
16.26824400000001,6.983790488247628,0.0589988156286746
16.270624000000012,7.013871117129994,0.0587102976733527
16.273024000000007,7.047024781945415,0.0584056920659932
16.275412000000003,7.085393353067169,0.0580709467696266
16.27779600000001,7.124041463442642,0.0577268011517163
16.280192,7.157334897884922,0.0574190269760388
16.282584,7.189976706021144,0.0571033558420695
16.284968000000006,7.215960585612058,0.0568015938281948
16.28736400000001,7.240873530016334,0.056507480937191
16.28975600000001,7.257126445128884,0.0562381435357798
16.292140000000003,7.271377259495018,0.0559787421400394
16.29455200000001,7.278690606062122,0.0557444939671304
16.296940000000006,7.27813531927042,0.0555371480342129
16.299324,7.2755779317323,0.0553385276975246
16.301744,7.267526098634129,0.0551803328160058
16.30413200000001,7.255889372923702,0.0550203881002511
16.306516000000002,7.248396618332973,0.0548391698553852
16.308912000000007,7.242254338182601,0.0546396222938536
16.311304000000007,7.234529266166391,0.0544300938232266
16.313688,7.22266022303049,0.0542416861699261
16.316084000000004,7.210651410267727,0.0540584545705593
16.318476000000004,7.193195373773155,0.0538736758284747
16.32086000000001,7.177881207651859,0.0536762181682436
16.323256,7.160285401530428,0.0534973599384624
16.32564400000001,7.142410056155274,0.0533299369805477
16.328028000000003,7.130820552273091,0.0531295041138843
16.330424000000008,7.11923104839091,0.0529292507395954
