Time,Force,Position
11.712151999999998,3.3461671992712,0.1696569605122839
11.714552,3.401141813979148,0.1689569178141
11.71694,3.4513227271192144,0.1682588810352283
11.719319999999998,3.495499233877899,0.1676048607385169
11.721716,3.531204598657831,0.1669384505460752
11.724104,3.5590451217946946,0.1661274326856781
11.72648,3.576412402206388,0.1654042640978067
11.728875999999998,3.584375479221681,0.1649373011522995
11.731263999999998,3.58353875731839,0.1648061885220456
11.733644,3.583865518400353,0.1646933831109345
11.736047999999998,3.589359963960406,0.1644452895989262
11.738431999999998,3.595785575080237,0.1641638423424616
11.740816,3.603374669185324,0.1639041112669443
11.74322,3.615153060380479,0.1636285405085422
11.747984,3.634749071390458,0.1636010341031689
11.750379999999998,3.651460933780356,0.1633664928430181
11.752764,3.6681727961702535,0.163125328013083
11.755159999999998,3.678878356320901,0.1631183664400957
11.757556,3.6946590531510193,0.1629255309536898
11.759944,3.711138598115439,0.1626670370361443
11.762323999999998,3.7239407026689895,0.1624413442388662
11.764728,3.729712791624893,0.1623974907996867
11.767112,3.7344611672224017,0.1623208431081344
11.769491999999998,3.742422348379826,0.1621172926072794
11.771888,3.749684681402949,0.1619901461068123
11.774276,3.7594609718516874,0.1618103907334181
11.776656,3.776826356405511,0.1613961978334089
11.779056,3.7945638280116727,0.1610068563127846
11.781439999999998,3.816537818536146,0.1605356222628936
11.78382,3.8374408738739807,0.160115049956719
11.786219999999998,3.8596944036521736,0.1596252321488835
11.788603999999998,3.879061888952415,0.159156222200393
11.790988,3.894612164214926,0.1587420667021029
11.793383999999998,3.911932222798377,0.1582162785323848
11.795771999999998,3.92860065507577,0.1576791235949452
11.798168,3.9407530291811312,0.1572626772230087
11.800572,3.954954725861152,0.1567066440510763
11.80296,3.972229458474229,0.1560438920132588
11.80534,3.985360219967612,0.1555435597792668
11.80774,3.998863068513332,0.1550875692049174
11.810128,4.017533601537142,0.1545282076560007
11.812508,4.040068566426925,0.1538521057672862
11.814911999999998,4.061113287249489,0.153258991543504
11.817299999999998,4.0809473032585535,0.1527271540472412
11.81968,4.100921088894479,0.1521824696068105
11.822076,4.121314183410985,0.1516043856181148
11.824464,4.136958902329982,0.1510968744738224
11.826844,4.157865749383555,0.1503609967622654
11.829247999999998,4.173093055279841,0.1497135465328642
11.831635999999998,4.185946173377372,0.149093690508551
11.834016,4.195074629235791,0.1485607821817179
11.83642,4.204622393974789,0.1479872667623461
11.838803999999998,4.21309922352715,0.1474490937545215
11.841184,4.219014873825653,0.1470214430876626
11.843583999999998,4.230005660803628,0.1464452669849436
11.845968,4.241508304460801,0.1458800547478607
11.848348,4.251380934423894,0.1454068544780127
11.850751999999998,4.257389132521014,0.1450360774767409
11.891343999999998,4.174815791391025,0.14478030701846
11.89374,4.175095330644745,0.1447549099668161
11.896128,4.177004883592546,0.1446459542576106
11.898507999999998,4.181987472473401,0.14444959163461
11.900904,4.194047298780146,0.1440635026028021
11.903292,4.210111326579724,0.1435673039860606
11.905688,4.231343038857391,0.1429865959147812
11.908084,4.254297312627754,0.1423783045855581
11.910472,4.273759241584482,0.1418975276206487
11.912852,4.29201046572771,0.141464104825216
11.915248,4.307468193191605,0.1410970645243864
11.917636,4.322646381401778,0.1407509098737346
11.92002,4.339826670358368,0.1403513330201342
11.922416,4.35714672894182,0.1399338567742803
11.924804,4.370881894913017,0.1395850131858111
11.927179999999998,4.380380541965904,0.1393012203174177
11.929584,4.389507101966453,0.1389892891858287
11.931972,4.395560626033946,0.1387653530289909
11.934352,4.4037560204747175,0.1384786429388258
11.936756,4.415536307527741,0.13812815184906
11.93914,4.42997032163324,0.1377320811135541
11.94152,4.445847357977715,0.1373426694971302
11.943924,4.459954611001249,0.1370472512923159
11.946308,4.475924195144341,0.1367204759598491
11.948692,4.482674671488266,0.1366325115296998
11.951088,4.490216543765111,0.1365397333379882
11.953472,4.494313293056561,0.1364965641791264
11.955856,4.497478876788233,0.1364715878883989
11.958252,4.499853064586987,0.1364522509948102
11.960636,4.50329818757238,0.1364029876310643
11.963032,4.505812144997996,0.1363719185960462
11.965427999999998,4.511818447237245,0.1362278989720078
11.967816,4.518895684663135,0.1360561257206643
11.970196,4.528906188395218,0.1358195613830184
11.972592,4.544503685485972,0.1354783855331453
11.97498,4.564896780002478,0.1350403849070006
11.97736,4.587664062317739,0.1345916365297248
11.979752,4.612712984633137,0.1340784379449332
11.98214,4.63482864064234,0.1336306442216923
11.984536,4.655361504785705,0.1332019438916337
11.986931999999998,4.674451346690095,0.1327766321045811
11.989319999999998,4.69060792228829,0.1324164938076467
11.9917,4.704250540460872,0.1320789106957412
11.994096,4.716170597140755,0.1317685003445558
11.996484,4.735307660873388,0.1312869850208304
11.998864,4.751930767180406,0.1308348555453989
12.00126,4.769485039047203,0.1303660702139059
12.003648,4.790112346847056,0.1298328873164952
12.006028,4.817956661699659,0.1291415599126913
12.008428,4.844218184686425,0.1284617139541856
12.010812,4.870200168419469,0.1277993701406525
12.013191999999998,4.896042382525654,0.1271601805181467
12.0156,4.918159934392726,0.1265843508059111
12.017984,4.937903298461043,0.1260259830781317
12.020368,4.9512682732377735,0.1255654263644143
12.022764,4.961839751335168,0.125155018482649
12.025152,4.969105876074029,0.1247749709365292
12.027532,4.973438734506696,0.1244506860053352
12.029928,4.978842528126001,0.1241008094138506
12.032316,4.980242120252472,0.1238291938268042
12.034712,4.981501942752083,0.123568396225254
12.037107999999998,4.982901534878554,0.123297209011493
12.039495999999998,4.9892364940576375,0.1229320508630201
12.08968,4.885199123224504,0.1227259246008884
12.092059999999998,4.890506577329455,0.122665047768178
12.094456,4.895302174755207,0.1225874532231535
12.096844,4.903310577740874,0.1224399144684998
12.099223999999998,4.915602721473095,0.1221988434621822
12.10162,4.930828131511512,0.1219043054400895
12.104008,4.947124476736566,0.1215903335909907
12.106388,4.968635728267955,0.1211778790009653
12.108788,4.996432821292315,0.1206362133127759
12.111176,5.026883641369147,0.1200714488774402
12.113556,5.059336562192398,0.1194791315032019
12.115951999999998,5.089927151896092,0.1189208829754296
12.118344,5.121868216040145,0.1183217746635102
12.120724,5.15809302093075,0.1176433483253816
12.123128,5.197949940261853,0.1168671323503007
12.125512,5.2307296221670665,0.1162202236799867
12.127895999999998,5.263928612952861,0.1155450454409613
12.130292,5.291912697432323,0.1149680978254743
12.132675999999998,5.325623544897316,0.1143085372612943
12.135056,5.3543990253096965,0.1137314061315119
12.13746,5.380520778669601,0.1131833891164394
12.139848,5.401567395350034,0.1127265026128333
12.142227999999998,5.4234054079633855,0.112270061099709
12.144624,5.442682241322879,0.1118878548239062
12.147011999999998,5.457535564308959,0.1116005801691895
12.149392,5.477603793601369,0.1112239067824491
12.151787999999998,5.49152595102767,0.1109520027332969
12.175679999999998,5.419977347698815,0.1108622800780595
12.17806,5.415043876504072,0.1107832034760139
12.180455999999998,5.407316908629994,0.1107352989108031
12.182843999999998,5.401871580756054,0.1106393905213608
12.185228,5.395495087322336,0.1105536863533709
12.187623999999998,5.391400233888754,0.110419353949963
12.190008,5.384372114148976,0.1103257264905839
12.192403999999998,5.378974008103279,0.1101759420364977
12.1948,5.374926376497942,0.10998758326049
12.197188,5.360868241160519,0.1099509904361493
12.199567999999998,5.353887343248986,0.1098034143505857
12.201963999999998,5.346347366830012,0.1096924578520583
12.204351999999998,5.338527851157318,0.1095996995100892
12.206732,5.333362062537097,0.1094834606580472
12.209127999999998,5.334062806529267,0.1092840712140024
12.211515999999998,5.333692615334798,0.1091044944700764
12.213907999999998,5.3359761511928046,0.1089019208805046
12.216304,5.344265989290062,0.1086043267772804
12.218692,5.348551625894485,0.1083692298529428
12.221071999999998,5.348041665073156,0.1081980187358652
12.223476,5.342316797945496,0.1081175559959985
12.225864,5.338174722683672,0.1080344049481589
12.228243999999998,5.334172417048707,0.1079419341049807
12.23064,5.33096150734666,0.1078482707247181
12.233028,5.331615029510588,0.1077044783873362
12.235407999999998,5.331057846861016,0.1075890173502058
12.237812,5.33371346977136,0.1074153869269107
12.2402,5.336369092681704,0.1072429928870162
12.242579999999998,5.341166585965325,0.1070329246178588
12.244976,5.3508994463015584,0.106751572279636
12.247364,5.359980680331733,0.1064667567498645
12.249743999999998,5.372694028802406,0.106099597494159
12.25214,5.388620182832992,0.1056780768083606
12.254528,5.406408667983135,0.1052400119836835
12.256908,5.4171199157073895,0.1049048507824012
12.259303999999998,5.430624660110979,0.1045423238218682
12.261691999999998,5.444269174141429,0.1041735605094528
12.264088,5.458984623358517,0.1037901972459873
12.266484,5.475702173322023,0.1033778473325299
12.268872,5.4930713495915855,0.1029708623410198
12.271252,5.5136533314210645,0.1025081425023624
12.273648,5.527577384705234,0.1021200002038398
12.276036,5.541361668362543,0.1017417316226892
12.278415999999998,5.554354556086935,0.1013657607797306
12.28082,5.566276508624688,0.1010112309720129
12.283208,5.581271497095497,0.1006131718820088
12.285588,5.596918111872365,0.1002276408425593
12.287984,5.6132163529552885,0.0998546109929275
12.290372,5.632168321090687,0.0994703992934131
12.292751999999998,5.650980519599228,0.0990951044433208
12.295156,5.665229438107493,0.0988058153594952
12.297544,5.675194615869202,0.0985854586440786
12.299919999999998,5.685020024004052,0.0983765495161644
12.302324,5.695124971392623,0.0981536611195071
12.304712,5.713098552140001,0.0978413452982626
12.307092,5.725345369901848,0.097584918050465
12.309488,5.735450317290418,0.0973618262519352
12.311876,5.746626199865627,0.0971261010354715
12.314256,5.762877219120307,0.0968312016731976
12.31666,5.783691518375263,0.0964597715680335
12.319048,5.806368148749775,0.0960783471873395
12.321428,5.831978045430484,0.0956620344937182
12.323824,5.857727711738051,0.0952389674877781
12.326212,5.884408543605399,0.0948112769414099
12.328596,5.90843564842027,0.0943981517161408
12.330992,5.92752738618253,0.0940381014730851
12.33338,5.943965396892313,0.0936937967635614
12.33576,5.954397105362848,0.0934161254887075
12.338164,5.960172986034491,0.0931771084696713
12.340552,5.96930144189291,0.0928868107984122
12.342932,5.979128745885629,0.0925543259433364
12.345328,5.990958150624765,0.0921982824550977
12.347716,5.997712418684428,0.091902039679175
12.3501,5.998320614877982,0.0916806512043826
12.352496,5.994272983272643,0.0914960293959585
12.354884,5.995020949093057,0.0912668932869672
12.357264,5.998841950846526,0.0910009057545894
12.35966,5.997727585547382,0.0907869274467309
12.362048,5.990606918008989,0.0906393068103728
12.364427999999998,5.979062740097181,0.0905580440320576
12.366828,5.96272296475962,0.0905176324183351
12.369216,5.95332065722109,0.0904067613511621
12.371595999999998,5.944709745615476,0.0902969747995829
12.373992,5.935027898823225,0.0902011175379224
12.37638,5.929862110203005,0.0900810697223382
12.378776,5.929771458262256,0.0899061489253923
12.381171999999998,5.931403367814205,0.0897264947623156
12.383556,5.9397404277397055,0.0894473269424169
12.38594,5.947006552478568,0.0891811346180855
12.388336,5.952130806844153,0.0889453567451376
12.390724,5.960560414568271,0.0887085331976416
12.393104,5.970200727105887,0.0884515368623388
12.3955,5.987058046696251,0.0881157645887461
12.397888,6.007919567779451,0.0877376955480854
12.400272,6.028501549608929,0.0873741071403715
12.402668,6.04843190513235,0.0870033604419804
12.405056,6.066499929536214,0.0866473054585902
12.407436,6.087501220246273,0.0862661570003566
12.409832,6.108502510956333,0.0858841330693997
12.41222,6.128572636106614,0.0855056852324346
12.414599999999998,6.15171579718995,0.0850946799413523
12.417,6.166990324914479,0.0847581132084581
12.419388,6.18147345670609,0.0844211518306842
12.421784,6.197027523684339,0.0840723971588663
12.424179999999998,6.2099278636101145,0.0837356797729339
12.426567999999998,6.222548664282169,0.0834172505189249
12.428948,6.232515737901749,0.0831077423140833
12.431343999999998,6.238710927453972,0.0828675899959094
12.433735999999998,6.248770548872169,0.0825992175357806
12.436116,6.257759235103727,0.0823444989096254
12.438515999999998,6.266375834282947,0.0820676579355957
12.4409,6.275504290141365,0.0818095050201868
12.44328,6.277555508573895,0.0816165072862246
12.445672,6.284961402939617,0.0813653638288601
12.44806,6.294509167678616,0.0810905011801252
12.450452,6.305779493910309,0.0808150480311817
12.452851999999998,6.319191690515282,0.0805181815463077
12.455235999999998,6.3326038871202535,0.0802232172384059
12.457616,6.34401398297881,0.0799427125718248
12.460019999999998,6.35956804995706,0.0796231220524695
12.462407999999998,6.372049081002253,0.0793317957676842
12.464788,6.385181738353506,0.0790485542235249
12.467192,6.399245561264536,0.0787621081875499
12.46958,6.412517988242649,0.0784746785707621
12.471959999999996,6.423648544847485,0.0782097662627318
12.474355999999998,6.429192108093651,0.077971130544946
12.476743999999998,6.4363184632056525,0.0777372248202997
12.479124,6.442793192011596,0.0774923503674688
12.481528,6.444192784138067,0.077291226611732
12.483916,6.44466121070476,0.0770944160137012
12.486295999999998,6.443918932457954,0.0769168667175854
12.488692,6.440662696785533,0.0767385474897235
12.491079999999998,6.442481597792585,0.0765168638401258
12.49346,6.436943722120028,0.0763687308452346
12.495855999999998,6.430614450514553,0.0762177801018668
12.498243999999998,6.423354013349299,0.0760713186797257
12.500628,6.411949605064351,0.0759617217473482
12.503023999999998,6.39640122565971,0.0758890646392574
12.505411999999998,6.383925882188123,0.0757898188414563
12.507792,6.370239833903038,0.0757082563167729
12.510187999999998,6.361489152670564,0.0755926200590888
12.512575999999996,6.356230816251727,0.0754305570883192
12.51496,6.350972479832889,0.0752688133731404
12.517355999999998,6.345434604160332,0.0751207568503412
12.519743999999998,6.343249303674551,0.0749336165627786
12.522124,6.348653097293856,0.0747098551632235
12.52452,6.35526759572666,0.0744692383669229
12.526908,6.3637444252790205,0.074220698434886
12.529292,6.375573830018157,0.0739324625664225
12.531688,6.386472069197514,0.073646874542412
12.534076,6.398161704309789,0.073365528360309
12.536471999999998,6.408920173862287,0.0730871775975168
12.538868,6.417676542668368,0.0728247187622014
12.541256,6.429366177780645,0.0725442932502943
12.543635999999998,6.438634403265923,0.0722981582238451
12.54604,6.446831693564563,0.0720633369828019
12.548424,6.455680610169261,0.0718376336115137
12.550803999999998,6.4669509364009565,0.0715756257431967
12.553208,6.481294298565707,0.0712916590212396
12.555596,6.494054868864622,0.0710016823742285
12.557975999999998,6.501600532857204,0.0707573067324427
12.56038,6.504210829797174,0.07054394501833
12.562764,6.503887860430949,0.0703473895654366
12.565143999999998,6.502493955878085,0.0701608157185927
12.56754,6.502682843191057,0.0699826230526109
12.569924,6.499147068264917,0.0698182505129917
12.572304,6.492538257405722,0.0696766438146599
12.574699999999998,6.488211086546662,0.0695088127074491
12.577087999999998,6.484535541993662,0.0693515812912818
12.579468,6.4856555948664125,0.0691729032004014
12.581872,6.484773546992745,0.0690069310533878
12.58426,6.485614060611776,0.0688413531086909
12.58664,6.483241768670891,0.0687042505132563
12.589044,6.47914691523731,0.0685663281670405
12.591428,6.479335802550282,0.0683897746348868
12.593811999999998,6.481666560236532,0.0681947559010128
12.596203999999998,6.487210123482697,0.0679714804466196
12.598591999999998,6.496338579341116,0.0677448743458156
12.600972,6.502905855945676,0.0675585752072357
12.603367999999998,6.511055924416073,0.0673804845100632
12.605752,6.520556467326828,0.0671791074848662
12.608147999999998,6.532710737290059,0.0669757011598312
12.610544,6.547518734305765,0.0667706582889455
12.612932,6.56246650094833,0.0665584397845468
12.615311999999998,6.572339130911423,0.0663801749709775
12.617716,6.581280595314739,0.0662048225215885
12.620104,6.595157426770665,0.0660036091040317
12.622483999999998,6.606752618226454,0.0658289093775155
12.624888,6.617556413749327,0.065650906353652
12.627276,6.624495777406223,0.0654903908742333
12.629656,6.63264584587662,0.0653142544966916
12.632052,6.641727079906796,0.0651361901180731
12.63444,6.658956486549499,0.0649072680604226
12.636819999999998,6.676837519498259,0.0646890409461685
12.639224,6.695649718006798,0.0644716511175802
12.641612,6.7093867798358655,0.0642853580859306
12.643987999999998,6.721541049799096,0.0640922751523384
12.646388,6.729970657523213,0.0639090574779143
12.648772,6.734023976702161,0.0637230248791391
12.651151999999998,6.738217065507966,0.0635313750994297
12.653548,6.747065982112664,0.0633304785561185
12.655936,6.760710496143115,0.0631150176266592
12.658316,6.771841052747951,0.0628930047203726
12.66072,6.786975810845619,0.0626518138882534
12.663104,6.8025298778238685,0.0623903821758538
12.665487999999998,6.819946275921674,0.0621258344724158
12.667884,6.833638011780368,0.061870587087203
12.670272,6.848400682825698,0.0616081292523231
12.672651999999998,6.864094519430807,0.0613449859514209
12.675048,6.880067895289638,0.0610693409034354
12.677435999999998,6.894178940028912,0.0607972352537242
12.679832,6.906427653648628,0.0605290232548163
12.682228,6.912670065029094,0.0602919662997348
12.684616,6.921333886036559,0.0600280255019901
12.687,6.925993505551189,0.0597840550958684
12.689396,6.937870132118569,0.059499354088122
12.691784,6.9483962842455895,0.0592349324616991
12.694168,6.959713832305527,0.0589751872995166
12.696564,6.975966747418078,0.0586952393639084
12.698948,6.990636870664793,0.0584071208896218
12.701332,7.001861870926113,0.0581151005575973
12.703728,7.006568712268987,0.0578341501282356
12.706116,7.017142086224251,0.0575349666180737
12.708495999999998,7.022919862753762,0.0572490128851311
12.710892,7.031630905589468,0.0569536850775862
12.713276,7.040341948425175,0.0566596917085064
12.715659999999998,7.049052991260882,0.0563654216996708
12.718056,7.05776403409659,0.0560724778835576
12.720439999999998,7.068477177678713,0.0557738178610238
12.722836,7.0779796164473385,0.0554873480274126
12.725236,7.092277652641717,0.0551912323086127
12.72762,7.108717559209369,0.0548821845725076
12.730004,7.124366069844106,0.0545674710969305
12.7324,7.137593170851845,0.0542796414640166
12.734788,7.151891207046222,0.0539851821732747
