Time,Force,Position
12.37466,4.063305607489833,0.1532857909927436
12.37706,4.075082102827119,0.1532775514165251
12.381847999999998,4.093282313426366,0.1532455747170838
12.384244,4.103942547606639,0.1531480154932039
12.386644,4.117256508839387,0.1530031149812489
12.389032,4.138299333804081,0.1526524543415826
12.391428,4.159621698022496,0.1522810764160214
12.393824,4.178569874442157,0.1519284674718764
12.396211999999998,4.200079230115676,0.1514649639062437
12.398592,4.222240212095252,0.1510055450505849
12.400992,4.242538862955271,0.1505945062591962
12.40338,4.260183786762816,0.1502284038886979
12.40576,4.26772565903966,0.1500994633679837
12.408155999999998,4.277177084264304,0.1498575724642572
12.410543999999998,4.283043616876694,0.1496947054718136
12.412928,4.29226272467586,0.1494128639875681
12.415323999999998,4.304554868408081,0.1490394199488779
12.417711999999998,4.316474925087965,0.1486297582712293
12.448768,4.301627289675494,0.1484774221076006
12.451164,4.303024985944097,0.1483525309089517
12.453551999999998,4.313781559638724,0.1479491781558346
12.455932,4.318671600720963,0.1476975010521176
12.458332,4.324772346616699,0.1473986747578392
12.460719999999998,4.328451682885438,0.1471941601444599
12.4631,4.3302686880346215,0.1470327311307593
12.4655,4.337580138743856,0.1466967016477941
12.467888,4.346521603147171,0.1462784532083713
12.470271999999998,4.356022146057927,0.1458136190415512
12.472668,4.365010832289485,0.1453339020034072
12.475056,4.377352093707819,0.1447405666399027
12.477439999999998,4.3883901025140375,0.1441404187411347
12.47984,4.399567880947116,0.1435294793654382
12.482228,4.412515442701134,0.1428142144831504
12.484607999999998,4.422529738148957,0.1421751889282965
12.487004,4.434406364716336,0.1414976535751043
12.570619999999998,4.202319685098153,0.1411806863992543
12.573016,4.209954105173614,0.1411330217627943
12.575408,4.2193110867417705,0.141055744677634
12.577792,4.227597133123289,0.1410132105979613
12.580196,4.241749712117198,0.1408299136189775
12.582588,4.256553917417165,0.1406497785816254
12.584972,4.274011849769606,0.1404259752928913
12.587367999999998,4.300549120294354,0.1399566648477409
12.589759999999998,4.322942419699407,0.1396086896354428
12.59214,4.344544323171543,0.1392655194703335
12.59454,4.366285996270538,0.1389106495763462
12.596927999999998,4.386816964556036,0.1386064812881229
12.599312,4.40390280985614,0.1383566889400376
12.601708,4.419126324036688,0.1381476355611843
12.604095999999998,4.435700312657594,0.1378836742291929
12.60648,4.451482905345583,0.1376307569342063
12.60888,4.471968547660705,0.1372209447014963
12.611272,4.492873498856409,0.1367743673742677
12.613651999999998,4.513918219678973,0.1363187274306425
12.616048,4.537384350128534,0.1357820704843048
12.618436,4.553401156099868,0.1353960355476018
12.620815999999998,4.565041673526032,0.1350795324853134
12.623212,4.581757327631669,0.1346423308120514
12.625604,4.59595902431169,0.1342367807694161
12.627983999999998,4.604573727633041,0.133940410564424
12.63038,4.618682876514446,0.1334948460710547
12.632768,4.631721090209211,0.1330822837872426
12.635148,4.642617433530701,0.1327313939047424
12.637543999999998,4.654584712038828,0.1323511004452738
12.639931999999998,4.669485256853149,0.1319112887305871
12.642316,4.684246032040611,0.1314831767447783
12.64472,4.698215411295155,0.1310622469257173
12.647108,4.715257826482755,0.1305720482640714
12.649487999999998,4.73444211204363,0.1300313816642233
12.651884,4.753905936858228,0.1294745343733075
12.654272,4.772298826486187,0.1289469462085002
12.656652,4.792693816860561,0.128394837309871
12.659048,4.816953239100912,0.1277806404856894
12.661435999999998,4.839629869475424,0.1271765594818593
12.663816,4.861515103917019,0.1265853813416643
12.666216,4.8872647702245855,0.1259216713676859
12.668603999999998,4.92060353063724,0.125143244020074
12.670984,4.947004823250867,0.1245003233385634
12.673379999999998,4.97433728142427,0.1238425162496243
12.675767999999998,5.005534171463648,0.1231192045864363
12.678152,5.025649622584303,0.1226151445722717
12.680547999999998,5.044973677772039,0.1221169747117733
12.682935999999998,5.065508437773275,0.1215897713310158
12.68532,5.086322737028231,0.121043172137368
12.754616,4.893839804879112,0.1206947306961236
12.756999999999998,4.899891433088736,0.1206907547353941
12.759396,4.909527953910614,0.1206424963167988
12.761784,4.921678432158106,0.1205740683856538
12.764167999999998,4.940486838950906,0.1203984799433251
12.766564,4.957293144997291,0.120262227454017
12.768952,4.976660630297531,0.1200463800960836
12.771335999999998,4.996447424478354,0.1197971703073188
12.773732,5.017584693099535,0.1195135834465751
12.77612,5.036999400228019,0.1192468159389711
12.7785,5.057345272916283,0.1189614662287485
12.7809,5.075968584111849,0.1186952692429187
12.783283999999998,5.092869333814718,0.1184504066597056
12.785668,5.101389593479583,0.1183225803715607
12.788064,5.10953776609211,0.1181683368376746
12.790451999999998,5.12318038426469,0.1178918916693243
12.792836,5.133377879451878,0.1176506189515695
12.795232,5.141061417213451,0.1174270290365029
12.797619999999998,5.152656608669241,0.117087503217074
12.800003999999998,5.163739943445832,0.1167345225306208
12.8024,5.175661895983587,0.1163281608993664
12.804788,5.187351531095863,0.11588956387945
12.807168,5.200810949529078,0.1153833355323649
12.809563999999998,5.215760612029513,0.1148317145044195
12.811951999999998,5.229267252290971,0.1142785488291557
12.814336,5.245335071806288,0.1136601329662136
12.816731999999998,5.2661984887473565,0.1129873988540999
12.819119999999998,5.288412380128782,0.1122768996702879
12.821504,5.301546933337905,0.111711395064011
12.823899999999998,5.314961025800747,0.1111263065713195
12.826287999999998,5.33359002456992,0.1104528743434088
12.828668,5.354780202592952,0.1097186920368825
12.831067999999998,5.369964078376733,0.1090706739605968
12.833455999999998,5.391154256399766,0.1083250259130906
12.83584,5.413275599982576,0.1075737540281923
12.838235999999998,5.429390641326135,0.1069198066026697
12.840623999999998,5.444434747483056,0.1062863128673728
12.843004,5.462272350319313,0.1056218167661271
12.845399999999998,5.477968082782292,0.1050019401393253
12.847787999999998,5.490590779312216,0.1044312532320409
12.850172,5.500000670282223,0.103921577650636
12.852567999999998,5.508199856438732,0.1034425944184005
12.854955999999998,5.516119503341521,0.1029850179780113
12.85734,5.5192435528185575,0.1025847832405266
12.859735999999998,5.522227832668734,0.1021942478193527
12.862123999999998,5.521719767705275,0.1018777902187309
12.864508,5.514134465315927,0.1016630058614921
12.866903999999998,5.505990084419138,0.1014831546132364
12.91948,5.356697688209204,0.1013765122057946
12.92186,5.364658869366629,0.1013237408752775
12.92426,5.377043560897467,0.101190851608572
12.926648,5.3943636194809175,0.1010002308491467
12.929028,5.41782974993048,0.1007276644242225
12.931428,5.44823334817907,0.100371034946125
12.933816,5.479056255308241,0.0999902194086961
12.936196,5.510018932064273,0.0996047247386289
12.938596,5.537256946581191,0.0992556095712028
12.940984,5.562632629978552,0.0989211374964738
12.943364,5.585494355950298,0.0985953212334053
12.945764,5.611848426735681,0.098203522275473
12.948152,5.648632310133729,0.0976649311506626
12.950536,5.68369363203908,0.0971349371548425
12.952932,5.720105428384789,0.0965804709303643
12.955316,5.758659095103777,0.0959930972109436
12.9577,5.792696703650733,0.0954407723334125
12.960096,5.823009649958575,0.0949213247208568
12.962484,5.852950509214079,0.0943824675064058
12.964868,5.883962303656222,0.0938332106754575
12.967264,5.912180601419031,0.0933125810695285
12.969652,5.942028912875918,0.0927527201840054
12.972036,5.972016993959667,0.0921900336374486
12.974432,5.997209477617664,0.0916791456681837
12.97682,6.015324723849771,0.0912527501057509
12.979204,6.028644372656126,0.0908713568028922
12.981604,6.04247587814168,0.0905081976559697
12.983988,6.052023642880679,0.0902015868585214
12.986372,6.063293969112374,0.089889649968457
12.988768,6.079639432023542,0.0895225532797166
12.99116,6.099197700494624,0.0891147853062153
12.99354,6.118336660085126,0.0887344680772854
12.99594,6.13039838224974,0.0884340376959351
12.998328,6.146464305907187,0.0880959372904968
13.000708,6.160528128818218,0.0877813619007036
13.003104,6.177804757289163,0.0874311608070815
13.005492,6.198666278372363,0.087065906671703
13.007872,6.222461065761757,0.0866760279003712
13.010272,6.247698875390126,0.086301829546941
13.01266,6.2698636490854405,0.0859607808317213
13.015044,6.289746782780621,0.0856520391694193
13.01744,6.305066636475522,0.0854119007511169
13.019832,6.317033914983649,0.0852176396499457
13.022212,6.324996991998943,0.0850592135667787
13.024608,6.336033104947292,0.0848692920868981
13.026996,6.347069217895642,0.0846789529238262
13.02938,6.356103230097573,0.0845070179425334
13.031776,6.370212378978977,0.0842842584916332
13.034168,6.382598966367686,0.0840655649173244
13.036548,6.390841582636699,0.0838925858202624
13.038944,6.398664890025131,0.0837434605663217
13.041332,6.401972139241535,0.0836139627430776
13.043716,6.406210554017715,0.0834789704692769
13.060448,6.338288377555748,0.0834235053816761
13.062836,6.325206733748478,0.0834117154913899
13.06522,6.313475564381567,0.0833731442054799
13.067616,6.306819531694127,0.083287432591501
13.070004,6.306030031619078,0.0831565191265624
13.072388,6.301096560424335,0.0830673566055014
13.074787999999998,6.297094254789371,0.082972930216263
13.077175999999998,6.294721962848485,0.0828370862156416
13.07956,6.291698044601543,0.0826924155327231
13.081955999999998,6.28881389598146,0.0825401628089719
13.084343999999998,6.289142552921293,0.0823517854658077
13.086728,6.285746547622012,0.0821831369315541
13.089128,6.287146139748483,0.0819826432135992
13.091516,6.287474796688316,0.0817939789973733
13.093899999999998,6.295951626240677,0.0815315812608565
13.0963,6.305359621352816,0.0812642079531473
13.098688,6.313836450905176,0.0810003138960696
13.101067999999998,6.322313280457537,0.0807367287581923
13.103476,6.326785908517064,0.0805078477484401
13.105864,6.337776695495038,0.0802452722004752
13.108248,6.355425411018322,0.0799438253409664
13.110644,6.37014086023541,0.0796649111865898
13.113032,6.386858410198915,0.0793718630346597
13.115416,6.400782463483085,0.079094973580101
13.117812,6.4148462863941145,0.0788141375773827
13.1202,6.43305408042484,0.078493835850243
13.122584,6.45326397520198,0.0781597835180036
13.12498,6.47412549628518,0.0778376452923941
13.127372,6.49391608218174,0.0775286977673977
13.129752,6.517710869571134,0.0771921983527228
13.132151999999998,6.5367100595347765,0.0768840655929152
13.13454,6.55570924949842,0.0765742242399752
13.136924,6.570983777222949,0.0762817615896965
13.139319999999998,6.589750649761115,0.0759445665919651
13.141707999999998,6.598786557820915,0.0756688029047468
13.144092,6.6082417747612965,0.0753733156187066
13.146492,6.619047466142037,0.0750524232059769
13.148879999999998,6.628270365656942,0.074725243161136
13.151264,6.6359104733060095,0.0743902949943209
13.153664,6.639034522783048,0.0740687047825062
13.156052000000004,6.635360874087914,0.0737882265974657
13.158431999999998,6.632897930206282,0.0734899964788856
13.16084,6.627781259272174,0.0731966253707447
13.163227999999997,6.620802257218511,0.0729097959387817
13.165608,6.609819053672012,0.0726509524476667
13.16802,6.601117490125652,0.0723656922236916
13.170412,6.5917643002732325,0.0720713095400508
13.172792,6.5806885489281175,0.0717767512479279
13.175188,6.567890236090307,0.0714811350138569
13.17758,6.550156556199884,0.0712149936049825
13.17996,6.53828940892185,0.0709157533977842
13.182372,6.534849973510064,0.0705468751843252
13.184759999999995,6.534343804404475,0.0701620588088081
13.18714,6.53062482973897,0.069806817759623
13.189555999999996,6.5369163588055486,0.0693903101626313
13.191940000000002,6.542788578991547,0.0689941297780024
13.194324000000002,6.550802669550822,0.0685805174255303
13.19672,6.561470487162572,0.0681654286944214
13.199103999999998,6.578144607013572,0.0677161622191981
13.201484,6.597751993170768,0.0672530617158257
13.203899999999996,6.623225911940354,0.0667624413156532
13.206283999999997,6.647768665150162,0.0662757020409734
13.208668000000005,6.673754440598946,0.0658049889681067
13.211064,6.702813251980785,0.0653152505561755
13.213448,6.733734394482181,0.0648197362348822
13.215843999999995,6.76144273142366,0.0643558601103885
13.218244,6.7851468668723065,0.0639148805102772
13.220627999999998,6.811784268627148,0.0634636066254151
13.223008,6.840144231874686,0.0630145718129401
13.225412,6.871437461428418,0.0625536246510859
13.227800000000002,6.896724388742902,0.0621267132081006
13.230179999999995,6.911301964190998,0.0617871779407954
13.232576000000002,6.924808604452456,0.061457498128495
13.234963999999998,6.940037806206611,0.0611307667267749
13.237344,6.946699526467658,0.0608714457435638
13.239748,6.953501016355565,0.0606061959851801
13.242131999999998,6.960674593295812,0.0603658791071653
13.244515999999996,6.965054673556722,0.0601310291797162
13.246912000000002,6.966082178630854,0.0599275756093797
13.249296,6.96496781333171,0.0597400307526346
13.25168,6.959709476912873,0.0595780850760664
13.254084,6.958036033106289,0.0594162420466423
13.256467999999998,6.953708862247231,0.0592528229094633
13.258848,6.951895648813787,0.0590980514242054
13.261252,6.95222430575362,0.0589287500525737
13.263640000000002,6.953344358626371,0.0587643765311139
13.266019999999996,6.959120239298014,0.0585929402035734
13.268416000000002,6.960472609596242,0.0584573426559317
13.270803999999998,6.962756145454248,0.0583207403714876
13.273184,6.9618268757523385,0.0582060433176162
13.275579999999998,6.96676413866282,0.0580717097334289
13.277968,6.975053976760077,0.0579083943298751
13.280347999999996,6.983204045230474,0.0577514148408307
13.282744,6.988560617021536,0.0575982204199302
13.285131999999996,7.001134195865347,0.0574064145830795
13.287528000000002,7.011705673962741,0.0572230073988084
13.289924,7.0194836553808,0.0570437815310915
13.292307999999998,7.028984198291557,0.056867977306909
13.294688,7.037413806015675,0.0566992661914419
13.297092,7.045983183366652,0.0565243580483388
13.299480000000004,7.055903035157988,0.0563302536287843
13.301859999999998,7.064891721389547,0.056139121049515
13.304256000000002,7.077605069860218,0.0559441307382158
13.306644,7.085383051278277,0.0557674306692221
13.309027999999998,7.090087996763281,0.055606285158811
13.311424000000002,7.089997344822533,0.0554555686471785
13.313812,7.087904592135369,0.0553132280265793
13.316192,7.08916441463498,0.0551440885568724
13.318596,7.090284467507732,0.0549814383765049
13.320984000000005,7.093546390753759,0.0548047376485205
13.323363999999998,7.093595508439871,0.0546492967235849
13.325767999999997,7.092294151685625,0.0545119038117139
13.328156,7.090061629371601,0.0543752463582753
13.330536000000002,7.092624704483328,0.0542286054467981
13.33294,7.089461016609524,0.0540933557634666
13.335327999999995,7.089230595041917,0.053949687849198
13.337708,7.090071108660948,0.0537992661676747
13.340103999999997,7.091982557466616,0.0536425466492951
13.342492,7.095104711085783,0.0534732543122285
13.344872000000002,7.102882692503842,0.0533013801720929
13.347271999999997,7.112523005041459,0.0531292471739042
13.349655999999996,7.120161216832658,0.0529649388084608
13.352040000000002,7.123655457504164,0.0528205127312316
13.354436,7.125427136682973,0.0526707955902809
13.35682,7.128409520675279,0.0525088667666228
13.359203999999998,7.136187502093339,0.0523376237916793
13.361600000000005,7.139030116458786,0.0521798913338251
13.363984000000002,7.141453421943654,0.052040264468027
13.366368,7.141223000376045,0.0518963641280113
13.368764,7.140713039554717,0.051764191122193
13.371152000000002,7.13955145242733,0.0516207142771383
13.373531999999996,7.141742440486719,0.0514522339073788
13.375932,7.147146234106025,0.0512653918342401
13.378320000000002,7.144821163993383,0.0510934092809498
13.380699999999996,7.142216554627019,0.0509322767448983
13.383096000000002,7.138541010074019,0.0507776348452681
13.385483999999998,7.132723595147741,0.0506350799784224
13.387864,7.126906180221464,0.0504928147379901
13.390264000000002,7.120157599735407,0.0503506093051454
