Time,Force,Position
12.314099999999998,3.661451478800737,0.1587525743487703
12.316496,3.6629889446962,0.1585950800816775
12.318884,3.6646661802185214,0.1584231434765066
12.321267999999998,3.6719304090995135,0.158095846820008
12.323664,3.6838504657793982,0.1576460051673243
12.326052,3.693349112832285,0.1573079855864032
12.328431999999998,3.708434753243841,0.1568173328519786
12.330832,3.7223096888418983,0.1563732270684209
12.33322,3.737487877052073,0.1559385417872856
12.335599999999998,3.763048656046668,0.155210570761584
12.338004,3.787631047653241,0.154584887357737
12.340392,3.817940202245345,0.1537927019987223
12.342771999999998,3.853836350196119,0.1528521934344654
12.345168,3.895179721878703,0.1517908592016641
12.347556,3.9402477558004,0.1506650848642577
12.349935999999998,3.9851760200952375,0.149566077938702
12.352332,4.028893579576574,0.1485346130791077
12.35472,4.073961613498272,0.147430255600041
12.357116,4.118889877793108,0.1463378991089883
12.359512,4.159813940595111,0.145379517474134
12.3619,4.187794233358834,0.1448201805797466
12.364284,4.205903792017334,0.1445470888768673
12.36668,4.228808948101586,0.1441575320292502
12.369068,4.252273182693277,0.1437218606673458
12.371448,4.269870884672579,0.1434467210499405
12.373844,4.28867929146538,0.1431251422168252
12.376232,4.306556532698401,0.1428314277709373
12.378612,4.3296486802377565,0.142380620497774
12.381012,4.356372942217608,0.1418059736626932
12.3834,4.381654181958482,0.1412614707886327
12.38578,4.410427766512993,0.1406026236650792
12.388184,4.435616458455251,0.1400175231193051
12.390572,4.454846069986501,0.1395223584749934
12.392952,4.465834961106607,0.1391878623331251
12.395348,4.466673578867768,0.1391154260387997
12.397736,4.468722901442428,0.1390009046534141
12.40012,4.4685378058451946,0.1388947821890132
12.402516,4.470215041367517,0.1387519325101559
12.404904,4.474034147263116,0.1385492125941744
12.407284,4.477713483531855,0.1383567683687318
12.45508,4.410962373486622,0.1383559853929936
12.45746,4.411753769419541,0.1383497616578653
12.459856,4.413616100539096,0.1383145749111419
12.462248,4.424929856883296,0.1380896116712963
12.464628,4.441830606586167,0.1377603952816049
12.467024,4.458451817035316,0.1374568822238508
12.469412,4.476004193044243,0.1371344938930804
12.471796,4.495139360919008,0.1367971349294656
12.474192,4.514134759166911,0.1364679936381761
12.47658,4.538205294094286,0.136011160674686
12.478964,4.564697238648661,0.1354604944069271
12.48136,4.593470823203172,0.1348447741743827
12.483744,4.617588579958793,0.1343209741989657
12.486128,4.635979573728881,0.1339237843964087
12.488528,4.65451033712583,0.1335174464662396
12.490916,4.666895028656669,0.1332668215969188
12.493296,4.68449462649384,0.1328837605752524
12.495696,4.700371662838315,0.1325273413025971
12.498084,4.716248699182789,0.1321709220299417
12.500464,4.731194569967485,0.1318305803266045
12.502864,4.743346944072847,0.1315441780043967
12.505252,4.753217678178071,0.1313283817673758
12.507632,4.759735837096519,0.1312095927333406
12.51242,4.760946541910017,0.1311702180716547
12.5148,4.762716325230956,0.1310883654768915
12.517203999999998,4.766627978925173,0.1309534700438073
12.519591999999998,4.773752438179305,0.1307403051655954
12.521972,4.785300407806853,0.13041321874806
12.524368,4.794986046314843,0.1301195332399033
12.526756,4.80653401594239,0.1297958149602453
12.529136,4.814869180010021,0.1295515415140868
12.531539999999998,4.827348315197345,0.1292150112107783
12.533927999999998,4.84131769445189,0.1288204151364132
12.536308,4.852633346653959,0.12846002055455
12.538707999999998,4.866090869229305,0.1280454453299525
12.541095999999998,4.87447325512518,0.127740730401797
12.543476,4.881924475461275,0.1274509424348707
12.545871999999996,4.8907261702377305,0.1271156366269623
12.54826,4.902740670574101,0.1267053340060982
12.55064,4.915686336470249,0.1262796352172448
12.553039999999998,4.929051311246979,0.1258224817707857
12.555424,4.942835594904289,0.1253303006726027
12.557808,4.956759648188459,0.1248287903383087
12.560207999999998,4.970823471099489,0.1243142377279455
12.562592,4.982745423637242,0.1238611286310813
12.564972,4.9957383113616345,0.1233912572651366
12.567379999999998,5.005797932779831,0.1229786621104103
12.569763999999996,5.011434043824613,0.1226754915767483
12.572144,5.015999219682756,0.1223958753710584
12.57454,5.018562294794483,0.1221542897708954
12.576928,5.022196305092848,0.1218882216386788
12.579312,5.023828214644797,0.1216613043663347
12.581708,5.026111750502802,0.1214419486989828
12.584096,5.034261818973199,0.121123685347616
12.58648,5.042272117816736,0.1208157294412339
12.588876,5.051632891100631,0.1204618440420524
12.591264,5.061785060317445,0.1201039744059108
12.593659999999998,5.070586755093901,0.1197916226107513
12.596051999999998,5.077758436176275,0.1195452699459994
12.598439999999998,5.0858612828184295,0.1192868551595674
12.60082,5.091822259087306,0.1190739108791039
12.603224,5.1015078975952965,0.1188102928705272
12.605607999999998,5.110913996849567,0.1185671178551443
12.607988,5.12404475834295,0.1182743679182924
12.617547999999998,5.122928497185937,0.118194422794995
12.619932,5.12241664050674,0.1181774323383489
12.622327999999998,5.12283594938732,0.1181471908359254
12.624732,5.1249778197605975,0.118100900711248
12.62712,5.128190625320514,0.1180319207802726
12.631896,5.130332495693791,0.1179859936951914
12.63428,5.131543200507289,0.1179539477124289
12.63666,5.138480668306317,0.1178395138933658
12.639064,5.145418136105347,0.1177250800743026
12.641452,5.153566308717874,0.1175799141120668
12.643831999999998,5.160411228718286,0.1174204140550914
12.646232,5.170329184651753,0.1172092084372143
12.64862,5.185182507637832,0.1169212262995024
12.650999999999998,5.198453038758076,0.1166421688386892
12.653396,5.212794505064958,0.1163433375182677
12.655784,5.225273640252282,0.11607098975206
12.658163999999998,5.24338699062652,0.1156713504461163
12.660568,5.268996887307227,0.1151240928619485
12.662952,5.297028193614933,0.1145171746659466
12.665335999999998,5.326921831042194,0.1138884570836674
12.667732,5.356955238096316,0.1132559031328907
12.67012,5.388199349963936,0.1125964153636485
12.672499999999998,5.413856468472886,0.1120017967816424
12.674904,5.43830288216834,0.1114399485005652
12.677288,5.4596762599307365,0.110929302080349
12.679671999999998,5.478535680267518,0.1104300845222912
12.682068,5.495113460604162,0.1099853881767685
12.684456,5.504753773141779,0.1096505880210755
12.686839999999998,5.515744560119754,0.1092786556417172
12.689236,5.526455807844007,0.1089273819637757
12.69162,5.535956350754764,0.1086035778091885
12.694003999999998,5.542244088105604,0.1083436266118668
12.6964,5.544807163217331,0.1081275956908052
12.698783999999998,5.544157432769142,0.1079701442770088
12.701167999999996,5.543367932694093,0.1078222579815122
12.703563999999998,5.542857971872766,0.1076569991086571
12.705951999999998,5.542999637357496,0.1074998507962929
12.708348,5.541790828401866,0.1073806215730198
12.710744,5.539511084259599,0.1072801983137888
12.713132,5.540164606423526,0.107142956023154
12.715512,5.538676258214175,0.1070422508599255
12.717908,5.537187910004825,0.1069418354092631
12.7203,5.542776799221364,0.1067410878135882
12.722675999999998,5.549436623624542,0.1065229439542027
12.72508,5.557307152841219,0.1062766282446577
12.727468,5.569833509856787,0.1059829219602657
12.729848,5.583291032432133,0.1056804890055533
12.732252,5.598610886127037,0.1053576275840821
12.73464,5.6115093301949415,0.1050890373093571
12.737016,5.624547543889707,0.104813381553307
12.73942,5.643452290196862,0.1044666668768875
12.741808,5.657421669451406,0.1041809376790818
12.744188,5.670831970198509,0.1039285736973115
12.746584,5.686104602065169,0.1036558615132835
12.748972,5.6997944420659925,0.1033853086568573
12.751352,5.71013170688004,0.1031779945911306
12.753748,5.7193980365074495,0.1029895430844387
12.787196,5.690071061019107,0.1029037149765562
12.789592,5.688255951727793,0.1028709669467334
12.79198,5.693006223183171,0.1027289146625366
12.79436,5.699898365011826,0.1025542164616541
12.79676,5.707581902773399,0.1023794268796775
12.799144,5.71754708053511,0.1021621326709369
12.801524,5.7265810927370415,0.1019528349397969
12.803928,5.742692342364863,0.1016520247475082
12.806316,5.756661721619406,0.1013847404794977
12.808696,5.772912740874087,0.1010744534755254
12.811092,5.783436997143238,0.1008225058802291
12.81348,5.797733137479746,0.100485969123342
12.81586,5.811377651510195,0.1001425358635587
12.818263999999996,5.833961734086091,0.0996940517943701
12.820648,5.852960924049734,0.0992737520675955
12.823032,5.8691666173340415,0.0988797294331766
12.825428,5.887746498417103,0.098490210312534
12.827816,5.902461947634191,0.098141887560302
12.830196,5.9203902024111965,0.0977511080734956
12.832599999999998,5.942741967561613,0.0972899685107147
12.834984,5.969377473458585,0.0967673357401877
12.837368,5.992008777862726,0.0962954794586047
12.839764,6.008354240773892,0.0959139857658858
12.842148,6.022977142192364,0.0955423318712704
12.844532,6.039741913984111,0.0951431864149079
12.846928,6.057437851335638,0.0947389365941787
12.849312,6.079557299060579,0.0942709535840479
12.851691999999998,6.09594998379999,0.0938561305186509
12.854096,6.111691042233343,0.0934303312765625
12.856484,6.126500935106917,0.0930118424905762
12.858864,6.14945900059302,0.0925009129076917
12.86126,6.172277296452263,0.0920025729080968
12.863648,6.198168628244559,0.0914744111068241
12.866032,6.215260161118271,0.091032927213841
12.868424,6.234074255484679,0.0905870105325522
12.870816,6.25116578835839,0.0901440040800817
12.873212,6.261459623059935,0.0897608740783366
12.875607999999998,6.274686724067673,0.0893506615558858
12.877995999999998,6.282838688395939,0.0889983877132838
12.88038,6.286846681604512,0.0886947020022452
12.882775999999998,6.288293495559226,0.0884422120086438
12.88516,6.291882179887218,0.0881627706212198
12.88754,6.295610633842069,0.0878750243741454
12.889939999999998,6.2969176781699225,0.0876290013195236
12.892327999999996,6.293940981751224,0.0874377731098916
12.894708,6.290964285332524,0.0872470868502995
12.897104,6.284355474473327,0.0871196080526014
12.899492,6.281331556226386,0.0869757133342832
12.901872,6.283382774658913,0.0867806115947217
12.904268,6.28650492827808,0.0865723551617129
12.906656,6.2861347370836125,0.0864196726256804
12.909052,6.2844140714487855,0.0862947484090049
12.911447999999998,6.275336629134348,0.0862525574144666
12.913835999999998,6.269052683499247,0.0861933715555228
12.916216,6.261837572304366,0.086139677026564
12.918615999999998,6.260069684841296,0.0860597997454796
12.921003999999998,6.264308099617477,0.0859243897231553
12.923384,6.267335809580159,0.0858094855081955
12.925788,6.268361418796423,0.0857123499343451
12.928171999999998,6.270318193572465,0.085609216845483
12.930552,6.270831946109533,0.085494874499403
12.932947999999998,6.2702747634599625,0.0853937705950114
12.935335999999998,6.270788515997028,0.0852796809745271
12.93772,6.2765171748404285,0.0851090122143893
12.940115999999998,6.286529574430381,0.0848873188396727
12.942503999999998,6.292398002900642,0.0847089993467713
12.944884,6.298685740251482,0.0845087226369048
12.947279999999996,6.299246714616792,0.0843481960929679
12.949668,6.298457214541742,0.0842163357826555
12.952052,6.297388175212973,0.0840991259738541
12.954447999999998,6.292454704018231,0.0840102612333443
12.956835999999996,6.288731937636985,0.0839015197901243
12.959216,6.291015473494993,0.0837384816627239
12.961615999999998,6.294369944539638,0.0835632935450524
12.964,6.298655581144062,0.0833832870192596
12.96638,6.303220757002206,0.0831910292238947
12.96878,6.310067572860486,0.0829700722627412
12.971168,6.318125093532267,0.0827306312659954
12.973563999999998,6.335122182749492,0.0824211833348685
12.97596,6.359196509392606,0.0820550519238672
12.978348,6.388206203088333,0.081654382101553
12.980727999999996,6.413211695291225,0.0812841633985125
12.983123999999998,6.440359057867395,0.0808943147809963
12.985511999999998,6.462710823017813,0.0805366510392165
12.987892,6.484271192235313,0.0801806656773102
12.990291999999998,6.512257172572643,0.0797584267959432
12.992675999999998,6.540522692163695,0.0793247658441687
12.99506,6.577076153994135,0.0788181377421439
12.997455999999998,6.610975888772101,0.0783198265928547
12.999847999999998,6.645015393176927,0.0778160618008465
13.002228,6.682547242395387,0.0772640059801678
13.004623999999998,6.720218861240708,0.0767096806109384
13.007008,6.752303486727359,0.0761792423439558
13.009392,6.781594615534676,0.0756619482668597
13.011787999999996,6.807580390983459,0.0751407186409417
13.014172,6.8278394034467125,0.0746521898736723
13.016567999999998,6.840090012924298,0.0742239726481571
13.018964,6.850757830536048,0.0737912377721751
13.021351999999998,6.8496925829230175,0.0734317416656884
13.023732,6.837545896391264,0.0731542303630977
13.026132,6.822186404299595,0.0729082763312819
13.02852,6.815766480753371,0.0726032942714902
13.0309,6.803991881273956,0.0723490120306514
13.033295999999998,6.795941944033653,0.0720803569193998
13.035683999999998,6.782537330860157,0.0718615755441456
13.038064,6.763917811380329,0.0716863329122903
13.040463999999998,6.745810148579699,0.0715269374245326
13.042851999999998,6.720205939472599,0.071436490650874
13.045232,6.694601730365498,0.0713451154531403
13.047636,6.670859852377955,0.0712462804597713
13.050024,6.64776960069647,0.0711560943793771
13.052407999999998,6.623608413828346,0.0710745680463591
13.054799999999998,6.605173989945753,0.0709670675958813
13.057187999999998,6.589533062742494,0.070849575438114
13.059568,6.579199589644185,0.070726077371769
13.061967999999998,6.572311239531269,0.070603054723896
13.064351999999998,6.571009882777021,0.0704614157754788
13.066736,6.572082713821529,0.0703306247461358
13.069131999999998,6.581955343784622,0.0701528948516484
13.071516,6.598765441546745,0.0699336508642654
13.073916,6.61357343856245,0.0697264807378733
13.076312,6.620373032592488,0.0695706454656342
13.0787,6.632247763301998,0.0693802143218697
13.081084,6.641049458078451,0.0692122821153459
13.08348,6.654786519907518,0.0690156131216384
13.085868,6.670246143229282,0.0688191058949556
13.088247999999998,6.684914370618126,0.0686198799619789
13.090644,6.703866338753525,0.068382278598455
13.093032,6.724680638008482,0.0681398361494068
13.095415999999998,6.743632606143882,0.0679049476190262
13.097812,6.761653408719503,0.0676741919132176
13.1002,6.780465607228042,0.0674482535373647
13.102583999999998,6.798486409803662,0.0672208341946283
13.104988,6.816646982006144,0.0669888407239372
13.107372,6.834016158275707,0.0667560282140712
13.109752,6.850082081933154,0.066503609023275
13.112152,6.864565213724765,0.0662450292108421
13.11454,6.877186014396819,0.0659924595617278
13.11692,6.888735879882235,0.0657512188840678
13.119316,6.896421313501677,0.0655259159367695
13.121704,6.907319552681035,0.0652750328057817
13.124083999999998,6.923292928539865,0.0649941125355358
13.12648,6.934610476599804,0.0647247940760022
13.128868,6.948489203913601,0.0644206940855309
13.131247999999998,6.966000045667894,0.0640769593699417
13.133644,6.987003232235822,0.0636990138279976
13.136031999999998,7.007215022870833,0.0633176897670185
13.138428,7.027287043878982,0.0629448471999141
13.140824,7.04870953932749,0.0625552815928044
13.143212,7.071202969962638,0.0621596863868271
13.145592,7.0938361702246455,0.0617594050120487
13.147988,7.11381564343418,0.0613586933877706
13.150376,7.137007922203628,0.0609400496982074
13.15276,7.159269035413298,0.0605252921727017
13.155156,7.177805486383855,0.0601184913155368
13.157544,7.198995664406886,0.0597151897018382
13.159928,7.218183741683502,0.0593209280308113
13.162324,7.239001832654196,0.0588979652892194
13.164712,7.2542329302662205,0.0584833190191896
13.167091999999998,7.271745667878381,0.0580481164108619
13.169496,7.2893981751174035,0.0576098255377881
13.171884,7.30532812086373,0.0571709946941507
13.174264,7.324051563289391,0.0567275272394703
13.17666,7.340493365714914,0.056305584390176
13.179048,7.350369787393746,0.0559335496529938
13.181432,7.357173173139524,0.0555788028961222
13.183828,7.367980760378134,0.0552106040921748
13.186216,7.379067886870465,0.0548328940054605
13.188596,7.389875474109075,0.054469688974715
13.190996,7.396678859854851,0.0541207845378083
13.19338,7.402551080040848,0.0537729271456172
13.195764,7.409494235413485,0.0534178717359059
13.19816,7.408289218173595,0.0530974850288842
13.200548,7.408806762426399,0.0527824633916268
13.202932,7.41211780335854,0.0524655717661901
13.205328,7.412495577984485,0.052156841624565
13.207716,7.414595914103126,0.051851999155257
13.2101,7.413064135781272,0.0515823577752923
13.212496,7.416188185258309,0.0513093846385817
13.214884,7.418892925854765,0.0510535910352058
13.217263999999998,7.417174156077807,0.0508271545265145
13.21966,7.416107012606907,0.0506119640761758
13.222052,7.415179638762867,0.0503913586840259
13.224431999999998,7.417045761598162,0.0501701766958142
13.226828,7.419982819620095,0.0499423024004555
13.229216,7.420638237641892,0.0497314301452258
13.231599999999998,7.416870145290274,0.049550208453135
13.233996,7.408538772938382,0.0494030031489507
13.236384,7.393781789466658,0.0492904834588047
