Time,Force,Position
13.850608,2.180168186113638,0.1502665151029019
13.864935999999998,2.427287596741527,0.1501412045809153
13.867323999999998,2.459500616707823,0.1497043693243935
13.869707999999996,2.486128539173318,0.1491567326977362
13.879291999999998,2.5295589759694583,0.1488356955905293
13.881676,2.5424064064933827,0.1487629671624585
13.884056,2.5551140673904458,0.1487174059923408
13.88884,2.582484268102748,0.148673462031969
13.891224,2.599381226089879,0.148641816901703
13.89362,2.6193512200100657,0.1484723673487223
13.896004,2.6402523794900308,0.1482750287207153
13.898383999999998,2.663435178970133,0.1479662126320943
13.900784,2.68941147512957,0.1475671830369992
13.903168,2.715387771289008,0.1471598774239978
13.905551999999998,2.7377791748361924,0.1468628312292646
13.907948,2.7619403617043163,0.1463878640420768
13.910336,2.782656425587047,0.1460102504783713
13.912715999999998,2.807516460589473,0.1454588200501704
13.91512,2.825299258166009,0.1452310281141905
13.917508,2.844804617235241,0.1449604326075509
13.919887999999998,2.8636583499984147,0.1446771772044512
13.924672,2.8899122895537035,0.144501121894619
13.927056,2.905181129704625,0.1443017541836654
13.929452,2.922871379482544,0.1439679039577218
13.93184,2.940049772581265,0.1436165461739
13.934224,2.953643273067733,0.143381874136441
13.93662,2.967004456128724,0.1430946304731629
13.939008,2.981204256950876,0.1427060469712832
13.941392,2.992470791466833,0.1424330460870432
13.943788,3.0010835989303155,0.1422310105666582
13.948555999999998,3.007135227139939,0.1421807014019311
13.950952,3.0105803501253323,0.1421037795618447
13.95334,3.0136061642301444,0.1420775970410313
13.955723999999998,3.0195652446411523,0.1419480912250249
13.960508,3.02976084397047,0.1417295376968748
13.962891999999998,3.0342769021425022,0.1416062096297859
13.965288,3.039072499568254,0.1414501994026798
13.967676,3.04787229848684,0.1411529198695272
13.970059999999998,3.0629579388983963,0.1406036547435647
13.97246,3.086471291176201,0.1396996326672896
13.974848,3.106120211588032,0.1389436707524017
13.977227999999998,3.119762829760612,0.1384040642613853
13.979632,3.1284700808805805,0.1380284597548289
13.98202,3.1365257056944915,0.1376437597908087
13.9844,3.1421599208814044,0.1373865457394331
13.986796,3.1444415608815413,0.137281098794347
13.989184,3.1457920353219007,0.1372022607402813
13.991564,3.148073675322038,0.1370957793318966
13.993964,3.1515660201356743,0.1369271205386527
13.996348,3.153335803456613,0.1367956210414822
13.998732,3.1531034860311355,0.1367362582342822
14.001128,3.1615784197256267,0.136312063743224
14.003516,3.168330791927421,0.1359289562843714
14.005912,3.1733606026365195,0.1355843239462481
14.025028,3.1566053101341183,0.1352453617777358
14.027412,3.159818115694034,0.1351210010342265
14.094312,3.293971962090559,0.1350926918059583
14.0967,3.300814986233102,0.1350521433830033
14.099084,3.309288024069724,0.1349118322397208
14.10148,3.3173889748540084,0.1347280737123134
14.103868,3.328051104892151,0.1344208038004021
14.106252,3.338992774184013,0.1340866946827404
14.108648,3.3511451482893744,0.1337036425314745
14.111036,3.3671619542607094,0.1332299932786036
14.113431999999998,3.384249695418682,0.1327272778375738
14.115832,3.407064199562185,0.1320860416453981
14.11822,3.431229178146048,0.1313829761608461
14.120599999999998,3.458327423036105,0.1305980790333841
14.122996,3.485984746433604,0.1297641537537641
14.125384,3.5109883427786275,0.128984299274733
14.127767999999998,3.5341296080040947,0.1282466579851385
14.130164,3.55261504543067,0.127609318523608
14.132552,3.57566376285752,0.1268077606087417
14.134932,3.6009941202845077,0.1259289893815281
14.137327999999998,3.6275351825249937,0.1250069818830012
14.13972,3.6551471799521194,0.1240552977657372
14.142099999999996,3.679825911073048,0.1231943536010514
14.144495999999998,3.7018509151415024,0.1223768111203089
14.146883999999998,3.720523344023181,0.1216811181655666
14.149264,3.743199974397693,0.1208827670637952
14.151663999999998,3.762663799212291,0.1201916128815627
14.154051999999998,3.77998575365361,0.119569033628947
14.156435999999998,3.7943744417887344,0.1190208279807572
14.158832,3.799823561378414,0.1186998194606031
14.161219999999998,3.80126847947526,0.11848166399824
14.163603999999998,3.798197339400073,0.1183436100694092
14.166,3.795126199324887,0.1182057018024151
14.168387999999998,3.794988325555896,0.1180029297921136
14.170768,3.791637646226989,0.11789231671197
14.173168,3.78893859320414,0.1177910614033954
14.175555999999998,3.788381410554569,0.1176280068649271
14.177939999999998,3.7919681990246903,0.1173535489954677
14.189887999999998,3.770322865440051,0.1172620986700668
14.192272,3.768228216895017,0.1172461787395713
14.194676,3.766413107603704,0.1172037962356923
14.197064,3.764970085364728,0.1171973507520987
14.199443999999998,3.765249624618448,0.1171711826290646
14.201848,3.768462430178364,0.1170831347031381
14.204232,3.7726064012980576,0.1169783423242571
14.206611999999998,3.78368784021678,0.1167178234617879
14.209008,3.794909048762363,0.1164390176619675
14.211396,3.8047797828675862,0.1162144828270873
14.213775999999998,3.813300042532452,0.1160484309328193
14.216171999999998,3.8187472662642623,0.1159627069413408
14.218559999999998,3.8277793826083246,0.1158238023891518
14.22094,3.838022203765886,0.1156429335930516
14.223335999999998,3.8478457160428663,0.1155033067770714
14.295028,3.924748995304915,0.1153998128787491
14.297416,3.9234457426927993,0.115380171157022
14.2998,3.9213510941477656,0.1153631677564343
14.302196,3.9255422870957024,0.1151925979656803
14.304584,3.932154889670637,0.1149438765076898
14.306964,3.9359739955662367,0.1147406670637366
14.30936,3.939001705528918,0.1145395434430887
14.311748,3.9451024514246553,0.114266208913096
14.314127999999998,3.954555772507168,0.1138993548190862
14.316524,3.965219798403179,0.1134911502589865
14.318912,3.979748256165164,0.113007136300451
14.321291999999998,3.998001376166262,0.1124595358835586
14.323688,4.010947042062411,0.1119799457765563
14.32608,4.02403247758542,0.1114927880619982
14.328459999999998,4.04382306348198,0.1108184160756614
14.330856,4.05788688639301,0.1102517538181376
14.333244,4.064361615198955,0.10982106916238
14.335623999999996,4.068182616952423,0.1094249835135278
14.338024,4.08029156094528,0.1088471271693158
14.340412,4.091469339378358,0.108282436632253
14.342808,4.107442715237188,0.1076367247000721
14.345204,4.120343055162963,0.1070605805469017
14.347588,4.13245199915582,0.1064859292917802
14.349972,4.140556741655843,0.1059937251744278
14.352368,4.144657282663031,0.1055792768967079
14.354756,4.152901794789915,0.105080779102003
14.35714,4.165010738782771,0.104523640638647
14.359543999999998,4.175257351656072,0.1039898717875286
14.361928,4.181359993409677,0.1035433476835249
14.364308,4.1886733399767815,0.103063476343483
14.366708,4.195055520984109,0.1025979715299309
14.369092,4.19850443568524,0.1021803171687066
14.371476,4.204467307811987,0.1017460467734356
14.373872,4.2076366832593965,0.1013490907253538
14.37626,4.206103009079673,0.1010849979231821
14.37864,4.206291896392645,0.1008071301204327
14.381036,4.205270078892119,0.100562308199378
14.383424,4.202106391018316,0.1003651148385368
14.385803999999998,4.1927966312784015,0.1002884702989839
14.407308,4.081257026565193,0.1002536834550262
14.409704,4.074181684997173,0.1001833260496347
14.412092,4.065895638615654,0.1001466125949707
14.414488,4.059611692980552,0.1000752586871668
14.416883999999998,4.061196380704257,0.0998827081802165
14.419271999999998,4.061710133241324,0.0997118564462616
14.421656,4.063806677644227,0.0995411713402281
14.424051999999998,4.066834387606908,0.0993587393128015
14.426436,4.068791162382952,0.0991982995037672
14.42882,4.075263995331027,0.0989926067390017
14.431216,4.083040080891217,0.098808613806068
14.433604,4.09454082869052,0.0985789181067455
14.435984,4.108695303542298,0.0983260054672555
14.43838,4.125503505446551,0.0980519159553321
14.440768,4.146176139216777,0.0977238383936296
14.443148,4.164846672240587,0.0974304963887116
14.445544,4.1853795363839525,0.0971159649691791
14.447932,4.201116803101567,0.0968703898386855
14.450328,4.220299192804574,0.0966010723768245
14.452723999999998,4.243206244746696,0.0962868164433994
14.455111999999998,4.267463771129175,0.0959361945581635
14.457492,4.282502189712488,0.0957534155633552
14.459891999999998,4.296190133855443,0.095614188923102
14.46466,4.310482482476213,0.0955570409960565
14.467055999999998,4.318723202887357,0.095476563049035
14.469447999999998,4.32789508885828,0.0953863215248208
14.471828,4.337346514082923,0.0952740738263524
14.474227999999998,4.3501505144943415,0.095088842499907
14.476615999999998,4.362582427853424,0.0948728154288537
14.478999999999996,4.380508786772558,0.094547523266096
14.481395999999998,4.396712584198996,0.0942334119899712
14.483783999999998,4.413847547185213,0.0939128417203145
14.486167999999996,4.432193214984928,0.0935681684832197
14.488572,4.447885155732169,0.093245060863908
14.49096,4.465579197225825,0.092893989268894
14.493339999999998,4.483273238719483,0.0925460697146621
14.49574,4.501898445772919,0.0921859339987018
14.498124,4.520011796147158,0.0918052984505934
14.500507999999998,4.535750958722641,0.0914229557297112
14.502904,4.547485919805291,0.0910997892349113
14.505292,4.56629811831383,0.0906737029163147
14.507671999999998,4.590744532009282,0.0901386086320503
14.510068,4.6182639816377895,0.0895604623037785
14.51246,4.646854366452934,0.0889626359682361
14.514839999999998,4.6718126368275845,0.0884589258084989
14.517236,4.696119280896176,0.0879461996695407
14.519619999999998,4.72056569459163,0.0874254695879694
14.522,4.743010007540665,0.0869370369815554
14.524408,4.763032910862702,0.0865055193618252
14.526792,4.773464619333236,0.0861741909505132
14.529172,4.783244701497712,0.085831251756123
14.531567999999998,4.791441991796352,0.0854861784315942
14.533955999999998,4.793912519109462,0.0851970255911169
14.536336,4.796243276795711,0.0849180811065501
14.53874,4.7987138041088215,0.0846309613701478
14.541128,4.798390834742597,0.08436550818395
14.543507999999996,4.806216037988899,0.0839989732984201
14.545903999999998,4.8169745075413966,0.0836059848783884
14.548291999999998,4.829315768959731,0.0832196148704666
14.550672,4.841796800004924,0.0828229521682114
14.553067999999998,4.849482233624366,0.0824714337821867
14.555455999999998,4.852744156870394,0.082197120164313
14.557836,4.854003979370007,0.0819464468861474
14.56024,4.8532617011232,0.0817170529388252
14.562627999999998,4.852798962130114,0.0814689823716573
14.565008,4.852196453510169,0.0812304205247503
14.567412,4.852385340823142,0.0809954863258555
14.5698,4.851223753695756,0.0807943550854336
14.572179999999998,4.852343806568507,0.0805528512998555
14.574576,4.856908982426652,0.080301654163184
14.576963999999998,4.8637085764566885,0.0800698078726034
14.579344,4.871439336046505,0.0798330311530458
14.581744,4.882894757875435,0.0795705079124521
14.584127999999998,4.894210410077504,0.0793176559560926
14.586512,4.904315357466074,0.0790908861108548
14.588907999999998,4.9192159022803965,0.0788255946696631
14.591295999999998,4.924105943362634,0.0786699622330791
14.593676,4.925643409258097,0.0785695478756865
14.59608,4.9270411055266985,0.0784786880564873
14.598468,4.930952759220916,0.0783892175802156
14.600847999999996,4.938589075154246,0.0782773894961982
14.603252,4.945154455900937,0.0781798465955867
14.60564,4.951580067020768,0.0780915185308075
14.608019999999998,4.962009879633433,0.0779628563318723
14.610416,4.970297821872822,0.0778630047879967
14.612799999999998,4.980587864858626,0.0777440649252155
14.61518,4.990738138217571,0.0776350181899155
14.617584,5.004101217136431,0.0774831214534136
14.619972,5.016253591241792,0.0773555448933451
14.622351999999998,5.034691806840124,0.07715402838074
14.624756,5.049545129826203,0.0769645375166988
14.627144,5.064118913558561,0.0767943310936655
14.629523999999998,5.077621762104281,0.0766388919616675
14.631928,5.088331113970666,0.0764979410032915
14.634316,5.096107199530856,0.0763805317365799
14.636696,5.100950018784852,0.0762889849274362
14.639096,5.107515399531543,0.0761947612470475
14.64148,5.113429153972177,0.0760877421798874
14.643864,5.118551512479892,0.0759774890682919
14.64626,5.120880374308274,0.0758832840248101
14.648648,5.122417840203736,0.0757861934614182
14.651027999999998,5.126516485353057,0.0756350011375328
14.653424,5.132757000875653,0.0754570647150074
14.655812,5.138997516398251,0.0752812742107063
14.658195999999998,5.146588506361207,0.0750733808508645
14.660592,5.152317165204606,0.0748767784119328
14.66298,5.155531866622391,0.0746771224970991
14.665364,5.156884236920618,0.0744880807103187
14.66776,5.159587081659205,0.0742691860268968
14.670148,5.157354559345181,0.0740922021964166
14.672527999999998,5.161547648150987,0.0738393660090727
14.674924,5.163226779531179,0.0735823761776929
14.677312,5.1631833494186745,0.0733247192124827
14.679691999999998,5.170217156732058,0.0730043423143663
14.682096,5.186470071844608,0.0725989295183763
14.684484,5.200581116583882,0.0722170463063835
14.686863999999998,5.218044736509931,0.0717905849980476
14.68926,5.236439521995759,0.0713598609539404
14.691648,5.254974077108447,0.0709219763355751
14.694031999999998,5.2728570059150766,0.0704694308245617
14.696424,5.289668999535068,0.0700314881450543
14.698811999999998,5.305130518714701,0.0696253621233802
14.701195999999998,5.317658771588138,0.0692410885064856
14.7036,5.327393527782242,0.0688701650997139
14.705984,5.341923881402096,0.0684759833162918
14.708367999999998,5.359107962074424,0.0680824397122402
14.710764,5.381087640172504,0.0676656785352108
14.713152,5.402927548643724,0.0672583552024518
14.715531999999998,5.422625586741669,0.0668758410360141
14.717936,5.443115020772529,0.0664999846971714
14.720324,5.457178843683559,0.0661956639182358
14.722703999999998,5.474036163273925,0.0658822854276329
14.7251,5.494757914730264,0.0655492354402952
14.727488,5.51026475988027,0.0652669045752402
14.729872,5.51790297167147,0.0650357220510836
14.732268,5.529033528276305,0.0647567379188977
14.734656,5.536159883388306,0.0645056204399308
14.73704,5.544636712940668,0.0642296481101976
14.739436,5.55111144174661,0.0639664778809706
14.741824,5.564244099097863,0.0636793723021749
14.744203999999998,5.578447691635753,0.0633832553462139
14.7466,5.592791053800504,0.0630802308632429
14.748988,5.607274185592114,0.0627691504986785
14.751367999999998,5.622688482943503,0.0624561243560307
14.753776,5.631165312495863,0.06218464584679
14.75616,5.634986314249333,0.0619259040531816
14.758539999999998,5.632801013763551,0.0617044778873549
14.760936,5.627682446971575,0.0614966876620526
14.763324,5.625497146485793,0.0612746413255935
14.765707999999998,5.6193076445071775,0.0610764695240439
14.768104,5.6161911784616185,0.0608556629374779
14.770492,5.613866108348976,0.0606414041293024
14.772888,5.608607771930138,0.06044169865281
14.775283999999996,5.606422471444356,0.0602206284618797
14.777672,5.60554042357069,0.060025096432903
14.780052,5.604239066816443,0.0598531758635334
14.782451999999996,5.605731206741531,0.0596748616352158
14.78484,5.605593332972541,0.059536933692709
14.78722,5.611461761442801,0.0593654253524335
14.789619999999998,5.609461556554253,0.0592324164392165
14.792007999999996,5.603317380546012,0.0591290442208692
14.794388,5.595031334164493,0.0590440534230123
14.796784,5.588467849275672,0.0589626716612998
14.799172,5.583626925879545,0.05888525470903
14.801552,5.580788103229837,0.0587962354717562
14.803948,5.580882546886324,0.0586942330016381
14.80634,5.582979091289227,0.0585804602442113
14.80872,5.590150772371603,0.0584352244730392
14.811116,5.595320352707562,0.0583018375283479
14.813504,5.601840407483879,0.0581428205280128
14.815884,5.610083023752893,0.0579895896052238
14.818284,5.614600977782793,0.0578431147443714
14.820672,5.620050097372471,0.0576949857688179
14.823052,5.6236368858425925,0.0575508773830967
14.825452,5.628853688006794,0.0573681449487859
14.82784,5.635001655730775,0.0571851092040736
14.830224,5.641289393081615,0.0569956727919772
14.83262,5.649067374499674,0.0567758634032029
14.835008,5.650419744797903,0.0566094282626833
14.837392,5.654705381402327,0.0564307515184908
14.839788,5.664205924313083,0.0562156578387376
14.842176,5.67985253908995,0.0559647860326304
14.844556,5.695638923493676,0.0557082572208062
14.846952,5.708492041591208,0.0554634734481875
14.84934,5.725489130808433,0.0551941419957008
14.851736,5.74034434965238,0.0549421975146593
14.854131999999998,5.760134935548942,0.0546726324418131
14.856519999999998,5.7797857518186415,0.0544136188520945
14.8589,5.799716107342063,0.0541415342561621
14.861295999999998,5.8235108947314576,0.053860153667911
14.863683999999996,5.838645652829126,0.0536000102773518
14.866068,5.855782511673212,0.0533307734271489
14.868467999999998,5.874130075330796,0.0530479551039911
14.870855999999998,5.892477638988382,0.0527663046928036
14.873236,5.908823101899549,0.0524947124246287
14.875631999999998,5.920792276265544,0.0522129968936693
14.878019999999998,5.927965853205789,0.05194096823918
14.880404,5.934068494959394,0.0516778396343727
14.882796,5.940869984847302,0.0513774338969009
14.885184,5.949673575481625,0.051070243720314
14.887568,5.957266461302451,0.0507798909064391
14.889964,5.955500469697249,0.0505430952644403
14.892352,5.950661442158993,0.0503215111465917
14.894736,5.943028917941401,0.0500995571816213
14.897131999999996,5.930181487417478,0.0499082621292699
14.89952,5.917473826520415,0.0497091361690228
14.9019,5.898759863384099,0.0495337534089202
14.904296,5.879114734688009,0.0493587503810651
14.906688,5.856117030805141,0.0492117144632344
