Time,Force,Position
14.16332,2.439136957316596,0.1570518548265393
14.165715999999998,2.4467713773920567,0.1569393479961442
14.168116,2.45785092045291,0.1567265078305924
14.170504,2.4697218594466817,0.1564948113927411
14.172883999999998,2.4820121073210344,0.1562012336016423
14.17528,2.4972356215015816,0.1557652706266128
14.177668,2.5155321716151846,0.155180532834375
14.180051999999998,2.536342679154401,0.1545277069235492
14.182443999999998,2.561017618559592,0.1537062238405284
14.184831999999998,2.589417220203896,0.1527284845403017
14.187212,2.6153954122212038,0.1519153596255602
14.189616,2.638300568305455,0.1512583715460497
14.192004,2.6660013218154583,0.1504109404329743
14.194383999999998,2.693702075325461,0.1495635093198989
14.19678,2.726338195888076,0.1484901159502475
14.199167999999998,2.7586947771969705,0.1474906926451564
14.201548,2.7893287970131686,0.1465742641091474
14.203943999999998,2.816750011269451,0.1458385219496451
14.206331999999998,2.844450764779455,0.1450675530586012
14.208712,2.8720117486625973,0.1443418644375534
14.211108,2.900271580680042,0.1435277417311327
14.213496,2.922153023405897,0.1429450114149821
14.215891999999998,2.9405893431463603,0.142455897852
14.218288,2.959305202140544,0.1419292773255096
14.220676,2.975087794828532,0.1415089192223801
14.223059999999998,2.991289696397101,0.1410373029618126
14.225456,3.003906705353417,0.140672848632208
14.227844,3.0150806920707565,0.1403166831860179
14.230223999999998,3.0261149091612363,0.139988310433689
14.23262,3.034495399199241,0.1397296182397479
14.235008,3.0445059029313257,0.1393518117886032
14.237388,3.058800147409964,0.1387924649344546
14.239783999999998,3.0667160025970146,0.1384175969608483
14.242171999999998,3.075702792970703,0.1379995528722697
14.244552,3.078031654799084,0.1377938488545741
14.246956,3.079429351067686,0.1376179940928761
14.263675999999998,3.0668614597974817,0.1375887863076645
14.266059999999998,3.0688635605438987,0.1375184534937802
14.268456,3.0728677620367324,0.1373759392158233
14.278004,3.076964511328184,0.137310871216451
14.280399999999998,3.0789666120746,0.1372400552820407
14.285188,3.082551504686853,0.1371524976355518
14.289964,3.0899536073368368,0.1370399406498039
14.292352,3.0989857236808995,0.136815186541058
14.294731999999998,3.1064350481591263,0.1366083493598037
14.35686,3.0911681038660745,0.1364444356507705
14.359244,3.094193917970887,0.136427264770231
14.36164,3.106810926927203,0.1361264641167591
14.364028,3.120638640697017,0.1357651727892517
14.366412,3.1347458937205523,0.1353812599544989
14.368808,3.150016629729343,0.1350496937553861
14.371196,3.165007826484413,0.1347482600421539
14.373575999999998,3.1880074262251505,0.1341920024758618
14.375972,3.2114263348464687,0.1335862255859343
14.37836,3.235264552348368,0.1329235894272389
14.380743999999998,3.261616727275881,0.1322166833222234
14.38314,3.2861065710838377,0.1315555332232044
14.385523999999998,3.3055212782123222,0.1310690374844397
14.387924,3.324516676460226,0.1306298855685046
14.39032,3.341929282842294,0.1302066454058237
14.392708,3.361343989970777,0.129720149667059
14.395088,3.378616826725985,0.1293189012281711
14.397488,3.3963089723617736,0.1288735789838369
14.399872,3.418704167624697,0.1282301330572593
14.402256,3.438305866208285,0.1276656098959212
14.404648,3.456557090351514,0.1271725463066224
14.407036,3.472806213748326,0.1267461534568933
14.409415999999998,3.483188804532748,0.126490696544073
14.41182,3.4954337264367257,0.1261959469108594
14.416584,3.5039067642733475,0.1260715728444689
14.421376,3.504326073153928,0.1260261025160738
14.423756,3.504465842780788,0.1260114562019547
14.426152,3.5081905050199014,0.1259309673264389
14.42854,3.5121947065127355,0.1258224112840675
14.43092,3.5194117135654848,0.1256120257533349
14.433324,3.530632922111068,0.1252935785747927
14.435712,3.548139972149622,0.1247980758742659
14.438092,3.56816097961379,0.1242754185370644
14.440492,3.5900443181975152,0.1237265686533357
14.44288,3.612067426408101,0.1231627143538893
14.44526,3.636092635365103,0.1225615225304266
14.447656,3.654483629135192,0.1221509308103728
14.450044,3.673014392532141,0.1217274850011065
14.452428,3.691033299249893,0.1212782475319709
14.454824,3.71198547227384,0.1207684062307506
14.457208,3.735870911603981,0.120192507413692
14.459592,3.759616581307263,0.1196412080909206
14.461988,3.7855041213838216,0.1190201206102755
14.464376,3.816606567766713,0.1182545591044153
14.46676,3.8455671437763272,0.117563472042583
14.469156,3.874387950159081,0.1168723899805362
14.471544,3.897481993556305,0.1163035616703594
14.47394,3.9159202091546375,0.1158257212466924
14.476344,3.932216554379692,0.1154101948785051
14.478727999999998,3.946371029231471,0.115061199304337
14.481108,3.961596439269888,0.1146914360614717
14.483508,3.967882280762859,0.1145278584313432
14.485891999999998,3.97458743113641,0.1143285452554248
14.488272,3.978499084830627,0.1141793588120216
14.490676,3.98562354408476,0.1139480395329384
14.493064,3.9884642625923377,0.1138297146651657
14.495444,3.994657556286692,0.1136140535925083
14.497844,4.00364434666038,0.1133556141592125
14.500232,4.0123515977803486,0.1131203702015554
14.502612,4.015192316287927,0.1130020453337826
14.505016,4.0152395381161705,0.1129297695576353
14.507404,4.013564198451717,0.1128755256434132
14.514568,4.005278152070198,0.1128657023517548
14.516948,4.007559792070336,0.1127996223793535
14.519343999999998,4.011563993563169,0.1127149343485497
14.521731999999998,4.018501461362198,0.1125725727696767
14.548011999999998,4.046153097186088,0.1125589406898606
14.550399999999998,4.053834739089792,0.112489422003334
14.55278,4.063518481739913,0.1123791022810869
14.555175999999998,4.073853850696092,0.1122792120570946
14.557564,4.089124586704883,0.1120888640735816
14.559948,4.10653719308695,0.1118487542233266
14.562343999999998,4.122087468349462,0.1116374483106446
14.564732,4.138988218052331,0.1113861565254194
14.567108,4.161755500367591,0.1110371940115503
14.569508,4.187316279362187,0.1106582286811861
14.571892,4.210735187983506,0.1103346323066464
14.574288,4.23028966473885,0.1100696273984581
14.576688,4.2541278822407484,0.1097042842350714
14.579071999999998,4.281318674929422,0.1092529504248625
14.581456,4.311582503551153,0.108741760659815
14.583851999999998,4.347201008106076,0.1080998973068183
14.586235999999998,4.380026015981664,0.1074886288883468
14.588616,4.407124260871721,0.1069664082269714
14.591015999999998,4.434222505761778,0.106448149938458
14.5934,4.460249815465198,0.1059520480668133
14.595784,4.481481527742866,0.1055412621056734
14.598188,4.49884880815456,0.1051998700080181
14.600575999999998,4.516076318939393,0.1048727796993498
14.602956,4.53172103785839,0.1045484734022781
14.631636,4.4054716715017,0.104519345635771
14.634032,4.391413536164277,0.1044526312109328
14.63642,4.381219832692828,0.1043296132957905
14.638804,4.370654042169041,0.1041735359554682
14.6412,4.359436625339196,0.104006826531643
14.643588,4.34915037406913,0.1038281482142633
14.645972,4.336489935000309,0.103649993969261
14.648364,4.321455308132734,0.1034723388280372
14.650752,4.305489515705382,0.1033056712540677
14.653135999999998,4.292876298464805,0.1030582712174774
14.655532,4.283475886784143,0.1027417098417202
14.65792,4.265787532864093,0.1025845608474405
14.660303999999998,4.254245250810154,0.1023104268826275
14.6627,4.250431832488162,0.101917198298915
14.665088,4.248201206032007,0.1015199189183629
14.667467999999998,4.248624306628326,0.101097548463428
14.669864,4.249838803157563,0.1006764999260686
14.672252,4.25049422117936,0.1003034141000912
14.674635999999998,4.249147538454739,0.0999650590796491
14.677032,4.250594352409454,0.0995902833779479
14.67942,4.249107900057972,0.0992623705685323
14.681803999999998,4.243617246213657,0.0990031407068904
14.6842,4.241339397929259,0.0986790573806886
14.686588,4.240784111137557,0.0983464546222654
14.688971999999998,4.244372795465548,0.0979396746077561
14.691368,4.245028213487344,0.097572908048279
14.693756,4.249128754494533,0.0971850808621357
14.696136,4.257885123300614,0.0967478595456971
14.698536,4.268643592853112,0.0962776468819334
14.700924,4.276701113524893,0.0958930092980478
14.703304,4.281545828636757,0.0955726090995109
14.705699999999998,4.29360755080137,0.0951183677744567
14.708087999999998,4.303247863338987,0.0947309078529992
14.710472,4.306742104010492,0.0944515215435295
14.712868,4.311167510241775,0.0941609723566565
14.715255999999998,4.313590815726642,0.0939027003929334
14.71764,4.317876452331065,0.0936272075167056
14.720036,4.318577196323236,0.0933802108294266
14.722428,4.322071436994741,0.0931036624455183
14.724807999999998,4.3280796350918616,0.0928216683486848
14.753483999999998,4.348053420727785,0.0925773133988046
14.755884,4.3599715815498,0.0925343730013522
14.758268,4.380689541290401,0.0923806619260251
14.760652,4.403549371404278,0.0921909061704734
14.763056,4.430273633384129,0.0919578690797907
14.76544,4.454856024990703,0.091767828501925
14.767824,4.484745870702227,0.0915466316887251
14.77022,4.513564781227111,0.0913478551072918
14.772608,4.540661130259299,0.091160013840523
14.774992,4.571110054478264,0.0909134561999079
14.777388,4.604771784257143,0.0906064813658316
14.779776,4.64071515403616,0.0902517059850375
14.782156,4.677077832695757,0.0898610718017556
14.784552,4.71171794986266,0.0894747258821556
14.78694,4.73448523217792,0.0892439036745178
14.789319999999998,4.760744859306817,0.0889391953679707
14.791716,4.78942589606271,0.0885735201877729
14.794104,4.817315536885687,0.0882106669570231
14.796487999999998,4.849349148828355,0.0877876802409329
14.798884,4.882453695957663,0.0873588335984031
14.801272,4.909971249728302,0.0869842922760071
14.803655999999998,4.937628573125801,0.0866090623110113
14.806052,4.95983867279149,0.0862782638320216
14.80844,4.979115506150984,0.0859809500729489
14.810823999999998,4.995738612458003,0.0856993318683651
14.81322,5.010639157272324,0.0854228647436554
14.815608,5.02423644947453,0.085126951291014
14.817991999999998,5.037321884997539,0.0848120736822629
14.820388,5.049476154960769,0.0845053344809646
14.82278,5.05590366193847,0.0842500863639556
14.82516,5.067685844849364,0.0839218988682551
14.82756,5.082820602947033,0.0835452913864488
14.829948,5.101307936231477,0.0831174891225191
14.832332,5.123567153583278,0.0826134003810928
14.834728,5.153183147614689,0.0820113714754622
14.837116,5.180657271272822,0.0814443559083195
14.8395,5.209202330117594,0.0808658598405718
14.841896,5.238026928216087,0.0802751833582342
14.844284,5.265128964821883,0.0796957062310243
14.846668,5.281568871389536,0.0792007393582449
14.849064,5.301221583517106,0.0786665244445596
14.851452,5.316218467845784,0.0781623975388394
14.853836,5.328933712174325,0.0776937994852354
14.856232,5.343511287622423,0.0772151478946951
14.858624,5.359020028630298,0.0767336540766992
14.861004,5.373178295197816,0.0762798384434794
14.8634,5.383332360272498,0.0758639462797227
14.865792,5.391204785347044,0.0754835842389797
14.868172,5.397214879302033,0.0751127283289019
14.870572,5.405087304376577,0.0747307213388219
14.87296,5.40774482314479,0.0744132478526329
14.875344,5.401974630046757,0.0741956617822028
14.877752,5.391780926575307,0.0740402063294829
14.88014,5.375953007916946,0.0739677946120146
14.882523999999998,5.357983218885306,0.0739203185742716
14.884916,5.339082264293889,0.0738771013819396
14.887299999999998,5.319250144142693,0.0738372860217454
14.88968,5.298347088804858,0.0738087926789576
14.892084,5.276233328653524,0.0738000704170689
14.894467999999998,5.261848432234138,0.0737389353142189
14.896848,5.243040025441337,0.0737373880487915
14.899252,5.22795628088765,0.0737167986369137
14.901635999999998,5.21366393226688,0.0737006599659766
14.904016,5.198719957340054,0.0736711198964014
14.90642,5.182844816853448,0.0736449506017259
14.908803999999998,5.1695308556207,0.0735678578188682
14.911184,5.1579394558806495,0.0734901091320341
14.913588,5.149281322446794,0.0733904104029199
14.915976,5.144347851252051,0.0732729412648734
14.918356,5.13820367524381,0.0731765443831457
14.92076,5.13112833367579,0.0730842308317851
14.923144,5.126334632107906,0.0729566596262299
14.925524,5.123962340167022,0.0727852177509873
14.927928,5.126665184905609,0.0725652687679465
14.930312,5.129228260017337,0.0723542531762171
14.932691999999998,5.131651565502204,0.072151173607137
14.935096,5.134586727666268,0.0719700539993986
14.93748,5.136311185016833,0.0718104253869381
14.939859999999998,5.140037743113815,0.0716344323895152
14.942264,5.145766401957214,0.0714432578728476
14.944652,5.152705765614112,0.0712295535628109
14.947031999999998,5.155780697405037,0.0710416702284493
14.949428,5.164210305129156,0.070792283811551
14.951812,5.174222704719108,0.0705535691430254
14.954192,5.181162068376006,0.0703427942004722
14.956596,5.190755159085379,0.070130853375502
14.958984,5.203421285727807,0.0698914577212942
14.961363999999998,5.217298117183735,0.0696342720562049
14.96376,5.230523322333604,0.0693670252524765
14.966143999999998,5.243608757856614,0.0691066616637944
14.968524,5.256694193379622,0.068845745113437
14.970928,5.275785931141881,0.0685409185968155
14.973311999999998,5.2966002303968365,0.0682404808642854
14.975692,5.317554299278652,0.0679365047998491
14.978096,5.336506267414052,0.0676465459359836
14.980484,5.361744077042422,0.0673007836194293
14.98286,5.38367653331226,0.0669428578234198
14.985255999999998,5.404677824022318,0.0665859844811251
14.987643999999998,5.419812582119987,0.0662646131436035
14.990024,5.429360346858986,0.065963888821283
14.992428,5.440910212344402,0.0656493470422697
14.994815999999998,5.453391243389596,0.065330276364797
14.997196,5.461076677009039,0.0650383123229453
14.999591999999998,5.4670395491357855,0.0647459224822905
15.001979999999998,5.474724982755228,0.06445323920817
15.00436,5.479896458949055,0.0641560090426305
15.006764,5.483345373650186,0.0638582665331303
15.009151999999998,5.481998690925567,0.0635823292781851
15.011532,5.476787576334973,0.0633244259553385
15.013936,5.473997871371377,0.0630292937903166
15.016324,5.473210267154197,0.0627210783965693
15.018703999999998,5.466416360697767,0.0624531167134251
15.0211,5.455618252748502,0.0622108476608089
15.023483999999998,5.442678274425961,0.0619894776075938
15.025868,5.433742497596255,0.0617426108298165
15.028272,5.4195918144602135,0.0615396028083651
15.030656,5.411307663936563,0.0613071648066538
15.033036,5.409169585279025,0.0610317450173372
15.035431999999998,5.415039909607155,0.0607091779465634
15.037819999999998,5.426636996920814,0.0603676327346097
15.040204,5.43916524979425,0.0600269393863476
15.042599999999998,5.451693502667688,0.0596855333517297
15.044987999999998,5.464733612220323,0.0593652755320506
15.047368,5.475631851399681,0.0590634619757456
15.049772,5.488811730579177,0.0587351726195008
15.052155999999998,5.501432531251231,0.0584384694378479
15.054536,5.516427519722041,0.0581615446013248
15.056931999999998,5.537661127857577,0.0578885859022828
15.059316,5.5652731252847,0.0576127703818204
15.061711999999998,5.593536749017883,0.0573536626748428
15.064116,5.620589667937566,0.0571125137026996
15.066504,5.649365148349947,0.0568751109313315
15.068884,5.684007161374717,0.0566150724740109
15.071288,5.718369635145767,0.0563699946539247
15.073672,5.753663274476596,0.0561278936768772
15.076056,5.786815043434147,0.055902706738511
15.078459999999998,5.815543302018284,0.0557226465984941
15.080844,5.840918985415645,0.0555793678547371
15.083224,5.86280232399937,0.0554786448397092
15.085624,5.88040192183654,0.0554127805387222
15.088008,5.8958596493004345,0.055364450850152
15.090388,5.914902269376583,0.0553188015438815
15.092792,5.933665350199008,0.0552869471783019
15.09518,5.957224028447187,0.0552421653973098
15.09756,5.981853641882004,0.0551909636985907
15.099956,6.008485356063238,0.0551309848463638
15.10234,6.031532177632219,0.0550690905041851
15.10472,6.052065041775584,0.0549977774504057
15.10712,6.068593704426116,0.054945152779735
15.109504,6.086193302263287,0.0548857956455693
15.111888,6.104863835287096,0.0548189245901778
15.114284,6.125396699430463,0.0547503151031755
15.116668,6.141133966148077,0.0546944132451963
15.119051999999998,6.158361476932911,0.0546110220175919
15.121456,6.168651519918716,0.0545544687990173
15.123844,6.182154368464437,0.0544748741152088
15.126224,6.199009792196933,0.0543660334369865
15.12862,6.214934050369651,0.0542582785187556
15.131004,6.228344351116753,0.0541395256639163
15.133383999999998,6.243105126304215,0.0539995675954383
15.135792,6.256143339998981,0.0538543335258085
15.138176,6.266807365894992,0.0536926641350896
15.140555999999998,6.279241175111944,0.0534903942700219
15.142952,6.287950322089782,0.0532923265683868
15.14534,6.293446663507702,0.0531172971506278
15.147719999999998,6.295218342686512,0.0529454265753695
15.150116,6.298200726678819,0.052759494455392
15.152504,6.296387513245375,0.0525830021049667
15.1549,6.29019801126676,0.0523951188451703
15.157296,6.280423616675892,0.0522034524162531
15.15968,6.26678479021905,0.0520203361108752
15.162064,6.249840610403676,0.0518190755471269
15.16446,6.232105034655383,0.051610343580402
15.166848,6.209294322227619,0.0514231469959331
15.169228,6.188625480173131,0.0512196404337384
15.171628,6.1673050118125845,0.0510022013359809
15.174012,6.140769637145706,0.0508134785313838
15.176391999999998,6.110649369866575,0.0506183118085094
15.178792,6.0806688722143045,0.0504142482083893
15.18118,6.050688374562034,0.050209005097697
15.183559999999998,6.020847646536621,0.0499947667477978
15.185956,5.985931781831739,0.0498003914817603
15.188348,5.945940780447383,0.0496254816663238
15.190727999999998,5.90422721757033,0.0494416564919886
15.193132,5.860791093200582,0.0492496231490152
