Time,Force,Position
14.467864,1.894173296963003,0.1645069068948685
14.470244,1.9625978508148207,0.1641008094633322
14.472639999999998,2.0268803294048148,0.1635632024636027
14.475028000000002,2.0887432942256794,0.1628268657827918
14.477407999999995,2.146976040463917,0.1619920660056462
14.479812000000004,2.2002280936791707,0.1613076002703105
14.482196000000002,2.2561357698047666,0.1601166738693096
14.48458,2.308692766601456,0.1589030716598121
14.486976,2.355757213695962,0.1577632087191787
14.489364000000002,2.394767931834427,0.1569254647776869
14.491743999999995,2.434245180681715,0.155875325113694
14.494140000000002,2.465528930946102,0.1550638186804242
14.496527999999998,2.4964878159863946,0.1541162677578806
14.498908,2.5252595046830364,0.1531095532271336
14.501312,2.550213983341948,0.1521910534489492
14.503695999999998,2.5703728645751074,0.151499464388207
14.506076,2.586527544315433,0.1510044841490244
14.50848,2.6037531592423973,0.1504417850128315
14.510868000000002,2.6189766734229445,0.1499670309732297
14.513247999999995,2.6362022883499088,0.149383413175498
14.515652000000005,2.6497032410377592,0.1489770925098951
14.51804,2.661853719285251,0.1486863660717925
14.52042,2.6750751327193822,0.1483464185665328
14.522816,2.686573984660816,0.1480662621602489
14.525204000000002,2.698631915109692,0.1477071921798376
14.537143999999998,2.717253330447389,0.1473134934985673
14.539532,2.716741473768191,0.1472868688913971
14.541928,2.7243777897015216,0.1469009896734555
14.544323999999996,2.7281496737688777,0.1466681319010689
14.546708000000002,2.7295001482092367,0.146577505041945
14.549092000000002,2.7319215578362344,0.1464362967808049
14.551491999999996,2.735833211530451,0.1461834996191493
14.55388,2.7420265052248047,0.1458030513706967
14.556260000000002,2.746217698172742,0.1455042582765927
14.558656,2.753901235934315,0.14500420883222
14.608828000000004,2.721644785855514,0.1448011718770283
14.611216,2.727324327012801,0.1447019460697242
14.613596,2.734214572983587,0.1445364722739746
14.615992,2.737892013394456,0.1445175530221477
14.618380000000002,2.7409178274992683,0.1444905904808461
14.620776,2.7490187782835527,0.1442507409352492
14.623171999999997,2.758609973135057,0.1438991145917784
14.625555999999996,2.7680613983597,0.1435660140102715
14.627940000000002,2.7795149243307606,0.1431441635468342
14.630336,2.79231892474218,0.1426398852265457
14.632723999999996,2.8044712988475418,0.1421253253481608
14.635103999999998,2.809266896273293,0.1419464178252333
14.637500000000005,2.8180666951918787,0.1416007451977822
14.639888,2.828868594856881,0.1411778067866635
14.642268,2.845257487880553,0.1405832440322005
14.644664,2.867792452770336,0.1397374958147627
14.647052000000002,2.8863232161672854,0.1390517410955044
14.649431999999996,2.9015014043774587,0.1385359133951221
14.651832,2.91160445590816,0.138233252960363
14.654215999999998,2.923057981879221,0.1378423861097347
14.656612000000004,2.9338598815442225,0.1374491752529542
14.659011999999995,2.940378040462672,0.1372511187267188
14.6614,2.942612458634565,0.1372381979339686
14.663780000000004,2.948059682366375,0.1370831091172291
14.666176,2.954298302031103,0.1369167651189297
14.668563999999996,2.9585348209494136,0.1368286008149198
14.670944,2.9627713398677247,0.1367410466631657
14.673344,2.9692894987861727,0.1365449612301482
14.675731999999996,2.977949528077898,0.1362613884490419
14.678112,2.9836762910634285,0.136079912050072
14.680512,2.992987946661211,0.1358109821291057
14.682896,3.009516609311744,0.1352575190333674
14.685276000000002,3.023903401589,0.1348001113996196
14.687675999999996,3.0372192586796167,0.1343957227548561
14.690064,3.0458792879713426,0.1341325582417097
14.692444000000002,3.049464180583595,0.1340497326243081
14.694848,3.0547716346885445,0.1339313116591299
14.697232,3.063291894353409,0.1336863501316625
14.699616,3.075816355511108,0.1333100699185211
14.702011999999996,3.090063378161504,0.1329060002002438
14.7044,3.100306199319066,0.1326299021865004
14.706780000000002,3.113901595663403,0.1322176133872193
14.709176,3.1342946901799094,0.131598459788799
14.711564000000005,3.154408245442695,0.1310193764172429
14.71396,3.1782464629445943,0.1303566495850891
14.716355999999998,3.205809342685606,0.1296138145271343
14.718744,3.234675475038734,0.1288932686461349
14.721123999999996,3.2629825288844208,0.1282527310022072
14.72352,3.285795137170055,0.1278167583244997
14.725907999999995,3.312332407694802,0.1272949895755586
14.728288,3.335796642286494,0.1268792467817556
14.730683999999997,3.354185740198714,0.1266238402564709
14.733072,3.3742973996036296,0.1263404629071053
14.735456,3.3944090590085465,0.1260612884265138
14.737851999999997,3.4161035102793,0.1257733838152411
14.740243999999995,3.441662393416025,0.1253867888863361
14.742624,3.469502916552889,0.1249154088189692
14.745027999999998,3.497203670062892,0.1244723822577415
14.747416,3.5230420924533377,0.1240843304624926
14.749795999999996,3.548089118910866,0.1237104758179837
14.752195999999998,3.5803531524211443,0.1231269364686908
14.826251999999997,3.583751053578293,0.123126822395706
14.828632,3.5822154835407,0.1230574311578616
14.831035999999996,3.582402474995804,0.1229661472416196
14.833424,3.5844517975704635,0.1228376893923508
14.835803999999996,3.5872925160780422,0.1227036366997631
14.838208000000002,3.592135335332038,0.1225192228771327
14.840595999999998,3.596326528279975,0.1223246137481083
14.842976,3.608014267534381,0.121902211009383
14.845371999999998,3.616628970855733,0.1215610954469639
14.84776,3.6295274149236394,0.1210939976837692
14.850139999999996,3.647640765297876,0.1204846600354781
14.852544000000002,3.661238057500083,0.1199513603749632
14.854931999999998,3.674835349702289,0.1194125096289123
14.857312,3.689363807464274,0.1188544950502615
14.859707999999998,3.705242739666618,0.1182342113552706
14.862096,3.717536779256709,0.1176750043426201
14.864475999999996,3.724895451794188,0.1172397346111059
14.866872,3.733604598772025,0.1167408194500547
14.869259999999995,3.735888134630032,0.1164423732327167
14.871656000000002,3.737752361607457,0.1161838347230463
14.874052,3.737894027092187,0.1159460198454791
14.876440000000002,3.7321691599645264,0.1158422762614143
14.878819999999996,3.725792666530808,0.115728126242446
14.881216000000002,3.7234203745899226,0.1155171522358837
14.883603999999998,3.722258787462536,0.1152610745553454
14.885984,3.722028365894928,0.1149899384837942
14.888384000000002,3.7247312106335153,0.1146560573157576
14.890771999999998,3.7242212498121865,0.1144149380196654
14.893152,3.7262724682447166,0.1140729851940929
14.895547999999998,3.7213862188782167,0.1138854623689465
14.897936,3.710865754324804,0.1138727819130788
14.900315999999997,3.703930182383645,0.1138084860443195
14.902712,3.6974139193230657,0.11370379652071
14.905099999999996,3.690757886635626,0.1136123855129886
14.907496000000002,3.684893249881105,0.1135174436339287
14.909892,3.681402800925338,0.1134139289707187
14.912280000000004,3.6773532734621295,0.1133647146085941
14.914659999999998,3.675258624917096,0.1133468767546797
14.917063999999996,3.672512350066005,0.1133186143575815
14.919452,3.672839111147968,0.113212982478531
14.921832000000002,3.678473326334881,0.1130361833959404
14.943331999999998,3.6906238045823727,0.1129593384686017
14.945728000000004,3.69602380648594,0.1129525221455008
14.948116,3.703565678762783,0.1128883502653634
14.950496,3.7166945443982966,0.1127337336133897
14.9529,3.731965280407087,0.1125250470421988
14.955284,3.746025311602379,0.1123588768280573
14.957664,3.76171535649175,0.1121164606719347
14.960071999999997,3.782899846941175,0.1117226901864851
14.962455999999996,3.80506272477862,0.1112474487234458
14.964840000000002,3.828016998548984,0.1107690981468072
14.967236,3.847898236386292,0.1103624517926707
14.96962,3.8649859775442654,0.1100073015954275
14.972003999999998,3.8867295465011305,0.1095874211269873
14.974407999999997,3.9081935762042743,0.1091908168047534
14.976791999999996,3.931519937026976,0.108765856203667
14.979171999999998,3.9551258371033975,0.1083197169532807
14.981575999999995,3.98501757867279,0.1077278434908017
14.983964,4.017982356175239,0.1070658036984079
14.986348,4.052018068864325,0.1063727989357676
14.98874,4.0781851481946045,0.1058417082769578
14.991127999999996,4.105190845286045,0.1052478202218952
14.993512000000004,4.138482383870457,0.1045253736038593
14.995908,4.166838555402256,0.1038984472931088
14.998292,4.188397028761886,0.1033947014338184
15.000676,4.209675962867797,0.1029230940885304
15.003071999999996,4.230443040294509,0.1024279090359248
15.00546,4.250930578467502,0.1019657136195836
15.007840000000002,4.271138577386774,0.1015386172218119
15.010244,4.287854231492409,0.1012065682892347
15.012628,4.305780590411544,0.1008427163382489
15.015008000000002,4.325057423771037,0.1004327204022128
15.017415999999995,4.341680530078055,0.1000453662710217
15.019799999999996,4.3556499093326,0.0996885714334699
15.02218,4.372180467841003,0.0992568419546086
15.024575999999996,4.389921731162903,0.0987973026684172
15.026964,4.40980486485808,0.0983026591785513
15.029348,4.424473092246925,0.0979068377253909
15.031743999999996,4.442214355568826,0.0974667537971938
15.034132,4.461026554077366,0.0970077403963051
15.036512000000002,4.482772018892099,0.0965053309969659
15.038908,4.501025138893198,0.0960899988916045
15.041296000000004,4.512201021468407,0.0957917073540774
15.043680000000002,4.5301746022157845,0.0954080103064358
15.046084,4.551872845202276,0.0949854349019131
15.048468,4.569706656322793,0.0946116506726103
15.050848000000002,4.588983489682287,0.0942502870366834
15.053252,4.6033249559891685,0.0939573451046078
15.055639999999997,4.613801990430075,0.0937154235577355
15.058023999999996,4.626141355990541,0.0934535849701252
15.06042,4.639272117483924,0.0931960295365572
15.062807999999997,4.654125440470002,0.092932764596934
15.065188,4.673494821628112,0.0926345908755782
15.067588,4.690582562786086,0.0923861108004816
15.069975999999995,4.706599368757421,0.0921614874134243
15.072356,4.722755944355615,0.0919318913082063
15.074756,4.736630879953673,0.0917532527459036
15.07714,4.755720721858064,0.0914940573393719
15.079520000000002,4.771737527829399,0.0912850450342411
15.081924,4.789756434547151,0.0910541262216569
15.084308,4.805121614212428,0.0908374116089491
15.086692,4.822768433877842,0.0905760837969636
15.089095999999998,4.84306898059573,0.0902989020058215
15.091484,4.857642764328089,0.0900836052778662
15.093863999999996,4.872635856941028,0.0898434976246564
15.09626,4.8899105895541055,0.0895583351546325
15.098647999999995,4.907464861420903,0.0892558668266955
15.101028,4.929954500340312,0.0888947860037121
15.103428,4.951652743326803,0.0885293974259172
15.105812,4.973910064820736,0.0881291379317459
15.108196,4.996027616687806,0.0877432201861116
15.110591999999995,5.015211902248684,0.0873909256239052
15.11298,5.032673626316864,0.0870483741901857
15.115364,5.050135350385042,0.0867031735843833
15.117759999999995,5.066386369639725,0.0863857747856449
15.120148,5.079005274453909,0.0861470927827032
15.122528000000004,5.087619977775261,0.0859550552232552
15.124932,5.092882105909837,0.0858239299279667
15.127319999999996,5.095071198111357,0.0857330945854974
15.1297,5.092324923260265,0.0856975002476429
15.146431999999995,5.069327219377396,0.085695010132446
15.14882,5.065230470085945,0.0856928069413229
15.151200000000005,5.064998152660468,0.0856544625100927
15.153604,5.066488396727687,0.0856122503005343
15.155991999999998,5.063602352249736,0.0855848096888637
15.158372,5.060856077398643,0.085548343016454
15.160775999999998,5.056387241054855,0.0855158272562221
15.163164000000002,5.055270979897843,0.0854281848867963
15.165543999999995,5.049219351688218,0.0853908281071943
15.167940000000002,5.044937506799533,0.0852926561946943
15.170327999999998,5.043216841164706,0.085135023206492
15.172711999999995,5.04205525403732,0.0849410473565631
15.175103999999996,5.043175306910071,0.0847056502281856
15.177492,5.046297460529239,0.0844468138751703
15.179871999999996,5.0509098582156255,0.0841443197771999
15.182268,5.051285736983702,0.0838476415300101
15.184655999999997,5.047005787952885,0.0835839072879467
15.187039999999996,5.043796774108708,0.0833019516683879
15.189436,5.040727529891392,0.0830087174395434
15.191823999999997,5.036587350487436,0.0827312091731946
15.194204,5.025789242538172,0.0825100519596951
15.196599999999997,5.010055767536296,0.0823403843558265
15.198988,4.991528795855086,0.082189696010282
15.201372,4.966204126001706,0.0821033342301028
15.203767999999997,4.941531082454385,0.0820290924585132
15.206156,4.9169978085339245,0.0819444245071927
15.208551999999996,4.892604304240323,0.0818483739014021
15.210948000000002,4.867279634386943,0.0817556883508425
15.213335999999998,4.851174072332729,0.0815481294038285
15.215716,4.835068510278515,0.0813390766354965
15.218111999999998,4.82054574009014,0.0811351927477584
15.220495999999995,4.8058832002749,0.080939502190806
15.222879999999996,4.791360430086525,0.0807334493368154
15.225276,4.778048364711647,0.0805023902016286
15.227663999999995,4.766598630456325,0.0802592411009302
15.230047999999996,4.758454249559534,0.0800194341494873
15.232444,4.754825926834777,0.0797594978390826
15.234831999999995,4.758554380789629,0.079407465267504
15.237212,4.765216101050676,0.0790294939817023
15.239615999999998,4.7728089868715005,0.0786456537972585
15.242004,4.786128635677856,0.0782185794527043
15.244383999999997,4.8033127163501845,0.0777593530440442
15.246788000000002,4.82315052407499,0.0772951962923005
15.249176,4.846852763665767,0.0767956376075235
15.251556,4.873628039189599,0.0762608700292261
15.253951999999998,4.903196811392767,0.0757135428923064
15.256335999999996,4.931135569901854,0.0752145379860662
15.258716,4.956932458037666,0.0747475353173699
15.261119999999998,4.975652108747587,0.0743580435803202
15.263503999999998,4.993952450576929,0.0739973387522327
15.265884,5.01346349721977,0.0736177837534029
15.268287999999998,5.03269500460889,0.0732572585272278
15.270676000000002,5.049505102371012,0.0729423049173002
15.273055999999997,5.065104495319635,0.0726527246026514
15.275452,5.079493183454759,0.0723894158678853
15.277839999999998,5.093230245283826,0.0721143201107436
15.280223999999995,5.105244745620197,0.0718419476344387
15.28262,5.111764800396514,0.0716491976154396
15.285004,5.120286955919249,0.0714416055773096
15.287383999999996,5.128669341815122,0.0712428664230634
15.28978,5.137051727710996,0.0710466166209841
15.292167999999997,5.1454341136068695,0.0708519722068859
15.294564,5.152093938010047,0.0706582527873165
15.29696,5.158893532040086,0.0704565616018432
15.299348000000002,5.167695226816541,0.0702413200512818
15.301727999999995,5.176636691219856,0.0700205377503098
15.304124000000002,5.191072601183224,0.0697327821824342
15.306511999999998,5.203366640773314,0.0694666525868568
15.308895999999995,5.220316508162297,0.0691813499989252
15.311300000000005,5.234472878871944,0.0689054547295297
15.313688,5.244345508835037,0.0686785675469996
15.316068,5.256220239544547,0.0684371460879137
15.318464,5.2711680061871125,0.0681674010248445
15.320852000000002,5.288117873576094,0.0678841628605217
15.323231999999996,5.299992604285604,0.0676422235698407
15.325628000000002,5.311867334995116,0.0674012998226686
15.328015999999998,5.324533461637543,0.0671664080434512
15.330399999999996,5.337199588279971,0.0669315162642338
15.332803999999996,5.344650808616067,0.0667483237080871
15.335188000000002,5.352102028952164,0.0665651311519404
15.337567999999996,5.355549047795427,0.0664126754330282
15.339971999999996,5.356714426638552,0.0662920184865441
15.34236,5.357740035854817,0.0661797723394789
15.344740000000002,5.362490307310194,0.0660553713415497
15.347139999999996,5.363888003578797,0.0659740969625871
15.349528,5.360070793541066,0.0659413001512129
15.351908000000002,5.354111713130058,0.0659305847193895
15.354304,5.354158934958301,0.065877324257464
15.356692000000002,5.353694300107347,0.0658033953635869
15.359071999999998,5.356023161935727,0.0657200591511738
15.361468000000002,5.363427160443578,0.0655979470550446
15.363855999999998,5.370179532645373,0.0654641346517043
15.366236,5.377863070406946,0.0653285311330795
15.368636000000002,5.3783296011157695,0.0652519168226364
15.37102,5.384290577384646,0.0651126101849063
15.373404,5.391042949586442,0.0649790680681278
15.375799999999998,5.394862055482041,0.0648618551606121
15.378188000000002,5.399752096564279,0.0647341932700581
15.380584,5.405852842460017,0.064586969401673
15.382979999999996,5.414095458729031,0.0644190726496614
15.385368,5.423409010184685,0.0642395376604424
15.387748000000002,5.4311397697745,0.0640481374581588
15.390144,5.438590990110595,0.0638728505605555
15.392532000000005,5.44110684339408,0.063728821986284
15.394916000000002,5.442971070371506,0.0635712874649838
15.397312,5.452703930707739,0.063368344453743
15.399700000000005,5.459223985484057,0.0631974636171682
15.402079999999998,5.46201937802126,0.0630385041373906
15.404483999999997,5.465606166491383,0.0628861147806587
15.406868000000005,5.472545530148281,0.0626961065167192
15.409252000000002,5.475900001192926,0.0625094027754386
15.411644000000004,5.475110501117876,0.0623552365831704
15.414032,5.471527504363492,0.0622084136756054
15.416412,5.479305485781551,0.0619743337833815
15.418812000000004,5.48666415831903,0.061765064237522
15.4212,5.496164701229786,0.0615383286397447
15.42358,5.509948984887095,0.0612733948674744
15.425976,5.521079541491931,0.0610073398235327
15.428364000000002,5.533281033283404,0.0607317802213378
15.43076,5.546832999515236,0.0604357932548342
15.433155999999997,5.564249397613043,0.0601266069540394
15.435544,5.589534429069658,0.0597831219430812
15.437924000000002,5.614447373473934,0.0594117206743314
15.440328,5.636706590825735,0.0590352169689279
15.442715999999995,5.660176512991034,0.0586427328207786
15.445096,5.678059441797664,0.0582649481712264
15.447491999999995,5.698224010604431,0.0578602912376921
15.44988,5.722113241650311,0.0574519597268572
15.452260000000004,5.745350846390132,0.0570350547953132
15.454659999999995,5.764444480010262,0.0566495781917336
15.457048,5.786983236615783,0.0562757283320872
15.459432,5.815388525833695,0.0558795871849668
15.461827999999995,5.844073354305328,0.0554692123692937
15.464216,5.864749779791293,0.0551036662294594
15.466596000000004,5.886636910090756,0.0547257835758351
15.468992,5.902377968524111,0.0543844011619602
15.471379999999996,5.914906221397548,0.0540697096238834
15.473764000000005,5.93036774057718,0.0537453549136601
15.47616,5.945689490129952,0.0534289306599898
15.478547999999996,5.955656563749533,0.0531545803838001
15.480928,5.958825939196943,0.0529007628325094
15.483323999999996,5.955989012405103,0.0526751949739922
15.485712,5.956876747852377,0.0524473873119008
15.488096,5.96470195109868,0.0521935423379535
15.490499999999995,5.974389485464539,0.0519401074150463
15.492888,5.984077019830398,0.0516865498679279
15.495272,5.993624784569397,0.0514404620682892
15.497667999999996,5.997445786322865,0.0512050841301496
