Time,Force,Position
16.617303999999997,2.333389670608005,0.1623212933515514
16.619692,2.406058326809611,0.1597150092421223
16.622071999999996,2.4744451381225323,0.1573814068125696
16.624468,2.5394812701065472,0.1551649822723264
16.626855999999997,2.6027495146274915,0.1529046439798504
16.708084,2.6917465710194413,0.1521125483300546
16.710487999999998,2.698217508109647,0.1519890451811625
16.712871999999997,2.703245422960876,0.1518772118228307
16.715252,2.713208704864717,0.1515644941197216
16.717652,2.7243826915820564,0.1511644886987809
16.720036,2.741423210911787,0.1505237378752826
16.72242,2.760837918040272,0.1498253299637435
16.724812,2.7783902940491987,0.1491959164651939
16.727199999999996,2.795151274125209,0.1485865568184264
16.729591999999997,2.8039038512155514,0.1483228373743342
16.731991999999998,2.8120048019998354,0.1480500361834819
16.734375999999997,2.8171724864779257,0.1478969237172839
16.736756,2.8179638824108437,0.1478824204555032
16.73916,2.8210369183438986,0.1477365859496042
16.741548,2.8305355653967847,0.1472656054310315
16.743927999999997,2.841664226143751,0.1466619137742037
16.746332000000002,2.848137059091825,0.146232812239614
16.748716,2.849674524987288,0.1460154962398891
16.751095999999997,2.854005487562085,0.1456954296658849
16.753504,2.8581966805100225,0.1454016290462628
16.763059999999996,2.850889021516525,0.1453382081837615
16.765439999999998,2.853729740024103,0.1451493796838745
16.767835999999996,2.854708127412124,0.1450225376968232
16.770224,2.856105823680726,0.1448411620389889
16.772607999999998,2.859785159949466,0.1445483332005809
16.775003999999996,2.8654665969646222,0.1441845826652129
16.777388000000002,2.8805069114058046,0.1434368884658048
16.779772,2.8995514273398206,0.1425503389622402
16.782168,2.9259527199534467,0.1413666858704562
16.784551999999998,2.951562616634153,0.1401937074781468
16.786932,2.978243448501501,0.1389870502893535
16.789332,3.0014319355552104,0.1379844297072134
16.791716,3.022478552235644,0.137073172624116
16.794095999999996,3.045387500035634,0.1360988787605621
16.796495999999998,3.071229714141819,0.1350224200852888
16.91836,3.106281556757824,0.1345418256185261
16.920747999999996,3.1081438878773806,0.1344956033376349
16.923128,3.1150813556764096,0.1342892764154337
16.925523999999996,3.1312379312746046,0.1337852148717576
16.927912,3.151538477992493,0.1331410975937326
16.930296,3.170907859150604,0.1325290771009931
16.932691999999996,3.19376958512235,0.1317626407661316
16.93508,3.220123655907733,0.1308505428245006
16.93746,3.254206590425062,0.129747510417894
16.939859999999996,3.28950022975589,0.128595865912365
16.942248,3.326795969833136,0.1273809035350379
16.944628,3.3612982132310463,0.1262545028726708
16.947020000000002,3.394449982188598,0.1251793531981037
16.949408,3.424249175959373,0.1242386237087894
16.951803999999996,3.456702096782624,0.1232630456691384
16.9542,3.49073780947171,0.122288087422839
16.956587999999996,3.5237025869741574,0.1213780897343711
16.958968,3.560531796342579,0.1203909088193965
16.961371999999997,3.5946600568302824,0.1195418915143331
16.963755999999997,3.627857151758208,0.1187204071603022
16.966136,3.660914477059273,0.117930851852592
16.968536,3.6930406368005593,0.1171675529991059
16.97092,3.718089559115957,0.116597635142544
16.973304,3.7380633447518825,0.1161776879665167
16.975699999999996,3.758037130387808,0.1157676703103905
16.978083999999996,3.7753571889712574,0.1153958831400882
16.980463999999998,3.793608413114488,0.1150135583378528
16.982864,3.808786601324661,0.1147132632731971
16.985251999999996,3.816235925802888,0.1145801565523725
16.987631999999998,3.8246164158408926,0.1144332871504889
16.990028000000002,3.8329969058788977,0.1142878487396277
16.992419999999996,3.842168791849821,0.1141404978754783
17.054552,3.76549972587112,0.1140439308976566
17.056944,3.768572761804175,0.1139705163030285
17.059323999999997,3.773647898483648,0.1138527092426599
17.06172,3.7812369925887337,0.1137130706409457
17.064107999999997,3.785892820387625,0.1136341852387876
17.066491999999997,3.790548648186516,0.1135556741438824
17.068888,3.7976258856124057,0.1133922466967669
17.071275999999997,3.8028407919187375,0.1132594736923873
17.073659999999997,3.809126633411709,0.1130997384000985
17.076056,3.81541247490468,0.1129386983552909
17.078443999999998,3.818625280464596,0.1128519765773169
17.080827999999997,3.8281239275174825,0.1126051823234587
17.083224,3.8399042145705065,0.1122914960822913
17.085611999999998,3.8516845016235295,0.1119788344727301
17.087992,3.857738025691024,0.1117707931561629
17.090392,3.862628066773262,0.11152952141088
17.092779999999998,3.86723856860178,0.1113147153715292
17.09516,3.8713372137511,0.1110758355358079
17.09756,3.874784232594362,0.1108241024968109
17.099944,3.875158215504569,0.1106461253401557
17.102323999999996,3.877953608041773,0.1103868153669654
17.10472,3.877164107966725,0.1101766850246817
17.107104,3.875303672705037,0.1099947841286742
17.109499999999997,3.872931380764152,0.1097897165158885
17.111896,3.869907462517208,0.1095726650876654
17.114283999999998,3.865952378710487,0.1093701492602603
17.116664,3.860926359717127,0.1091949764312985
17.119059999999998,3.8611152470300993,0.1088946074263784
17.121448,3.858510637663737,0.1086389812741857
17.123827999999996,3.857116733110873,0.108342668566643
17.126224,3.8572130726252287,0.1079799690691646
17.128608,3.8534449802736095,0.1076894574768689
17.130992,3.8436705856827422,0.107521734508722
17.133387999999997,3.832033859972318,0.1073821236844054
17.135776,3.8262636668742815,0.107129776928971
17.138171999999997,3.8228676615750015,0.1068730916233106
17.140568000000002,3.820542591462361,0.1065900900282427
17.142952,3.819940082842416,0.1062919154755045
17.145331999999996,3.825204106834861,0.1058880299789265
17.147731999999998,3.830328361200445,0.1054941727084334
17.150115999999997,3.8334505148196127,0.1051438182086996
17.152499999999996,3.839505934744976,0.1047430214755248
17.154896,3.844769958737421,0.1043422792619013
17.157283999999997,3.848963047543227,0.1039671804786176
17.159664,3.856229172282089,0.1035272967702068
17.162059999999997,3.867499498513784,0.1030145857927645
17.164448,3.881563321424814,0.1024657228522149
17.166832,3.890412238029512,0.1020339848445967
17.169227999999997,3.898050449820711,0.1016359513605593
17.171616,3.907550992731467,0.1012165727412077
17.174011999999998,3.916771996388503,0.1008234789442891
17.176408000000002,3.9274360222845135,0.100442623285806
17.178796,3.942755875979417,0.0999946930569569
17.181179999999998,3.960589687099934,0.0995317147590848
17.183576000000002,3.97348813116784,0.0991570286072738
17.185964,3.9835930785564098,0.0988224488461258
17.188347999999998,3.99355825631812,0.0985027994092859
17.190744000000002,4.003663203706692,0.0981743631561145
17.193132,4.009484410348707,0.097946681860126
17.195515999999998,4.016516321804222,0.0976822584214087
17.221804,4.025083803297331,0.0974888015044711
17.224184,4.028528926282724,0.0974678031987373
17.226583999999995,4.033836380387673,0.097425582910684
17.228972,4.0384922081865655,0.0973713870969089
17.231352,4.051808065277181,0.0971994896552302
17.233748,4.065775548673856,0.0970390769225803
17.236131999999998,4.078951636137613,0.0968790308356858
17.238515999999997,4.092919119534288,0.0967231811353191
17.240912,4.110239178117738,0.0964946453442344
17.243299999999998,4.130492503007384,0.096229199503606
17.24568,4.149302805658054,0.0959498705713293
17.248084,4.174398949801694,0.0955578916300956
17.250472000000002,4.204430460997947,0.0951055692128919
17.252851999999997,4.236743612194338,0.0946054228189843
17.255248,4.277065166376394,0.0939882078367609
17.257635999999998,4.318597425371952,0.0933346532413432
17.260016,4.357475957315033,0.0927029771303529
17.262411999999998,4.397704963698473,0.0920252868060964
17.2648,4.435512560454915,0.0914174851237781
17.267192,4.468245020531887,0.0908873532278543
17.269588,4.499115149489301,0.0903764511606601
17.271976000000002,4.528122947327158,0.0898948394845363
17.274355999999997,4.553685622179623,0.0894335713879806
17.276756,4.581250397778505,0.0889489389648906
17.279139999999998,4.602017475205217,0.0885557702234631
17.28152,4.62292432225879,0.0881515821626916
17.283924,4.646904205245419,0.0877071542569477
17.286312000000002,4.669952922672269,0.0872765593598442
17.288691999999998,4.686715798606147,0.0869479459854629
17.291088000000002,4.697612141927636,0.0866903652113148
17.293476,4.71144175155532,0.0863998011530332
17.295856,4.717262958197336,0.086215480132027
17.298251999999998,4.716006927413464,0.0861287799978024
17.30064,4.714750896629592,0.0860426848389988
17.303036,4.7079078724870485,0.086002299437717
17.305431999999996,4.703346488344643,0.085917386710762
17.30782,4.699716269762016,0.0858248590513769
17.310200000000002,4.698088151925806,0.0857082101752079
17.312592000000002,4.698601904462873,0.0855582199801026
17.31498,4.703539167373354,0.0853301610780034
17.31736,4.711689235843751,0.08505261837447
17.319760000000002,4.713972771701758,0.0848357631746375
17.322144,4.721051904985516,0.0845759882533769
17.32454,4.726128937522858,0.084341534015617
17.32694,4.733627379687197,0.0840557816692713
17.329324,4.743267692224812,0.0837392496742955
17.331708,4.7478328680829565,0.083486096956575
17.334103999999996,4.749604547261766,0.0832526398387226
17.336492,4.757522298306685,0.0829413407536558
17.338872000000002,4.769164711590718,0.0826017543996936
17.341268,4.780667355247891,0.0822758456517896
17.343655999999996,4.796034430771037,0.0819101655404765
17.346035999999998,4.815685247040737,0.0814805153012348
17.348436,4.83333396256402,0.0810772026578726
17.350823999999996,4.8514945347665,0.0806952323915237
17.353203999999998,4.866442301409066,0.0803633865389423
17.355599999999995,4.885394269544465,0.0799925415212911
17.357988,4.9044860073067245,0.0796185373587537
17.360368,4.921063787643369,0.0792469343343958
17.362772,4.936151323912796,0.0789196732141204
17.365159999999996,4.948026054622305,0.0786392419527172
17.367539999999998,4.965487778690486,0.0783205092134964
17.369943999999997,4.976943200519416,0.0780670908836821
17.372332,4.990540492721622,0.0777864177422137
17.374712000000002,4.998643339363775,0.0775878024647141
17.377108,5.004883854886373,0.077402129721156
17.379495999999996,5.01233507522247,0.0771916635773234
17.381876,5.021508857051262,0.0769782829347889
17.384276,5.029891242947136,0.0767649659174378
17.38666,5.0393445640296495,0.0765389700705716
17.38904,5.04400228768641,0.0763485373202656
17.391436,5.051733047276226,0.0761259091329494
17.393824000000002,5.0561112316792665,0.0759554094588981
17.39622,5.05862708496275,0.075794871450973
17.398615999999997,5.061562247126815,0.0756076795809442
17.401004,5.0635662437311,0.0754246058556272
17.403383999999996,5.055559736603302,0.075338610574187
17.408175999999997,5.030420162347156,0.0753157658555769
17.410556,5.019852475965499,0.0752844137120708
17.412951999999997,5.010215955143622,0.0752479113634899
17.41534,5.001790139135243,0.0751880234726566
17.417724,4.995366423873282,0.0751087390969967
17.420119999999997,4.985590133424544,0.0750802964032883
17.422508,4.981820145215058,0.0749944293006047
17.424887999999996,4.980843653684904,0.0748937564232101
17.427292,4.982381119580365,0.0747961827992537
17.429679999999998,4.98312718954291,0.0746945317937163
17.43206,4.977727187639345,0.0746578897113975
17.434455999999997,4.9687422931235234,0.0746316680965252
17.436847999999998,4.9649723049140375,0.074545108312399
17.439228,4.957477654465436,0.0744775529772594
17.441623999999997,4.950262543270557,0.0743921414291604
17.444012,4.9438388280085945,0.0743104749228091
17.446391999999996,4.941419314239466,0.0741924884736011
17.448791999999997,4.945285641963309,0.0740039945538063
17.451175999999997,4.960373178232736,0.0737046956189495
17.453559999999996,4.980815390435355,0.0733411110225139
17.455956,5.005681113011388,0.0729194480285657
17.458343999999997,5.030034978908222,0.0724828099696614
17.460724,5.056950024058914,0.0719996227622887
17.463119999999996,5.08200273809005,0.0715289872097551
17.465503999999996,5.107195221748047,0.0710514586050603
17.467888000000002,5.135088654286761,0.0705172523017848
17.470284,5.162190690892556,0.069983738404028
17.472668,5.1817036333932665,0.0694886113487071
17.475068,5.197771452908584,0.0689925515845044
17.477463999999998,5.21397904205076,0.068487222554102
17.479852,5.2354015374992695,0.0679269125925242
17.482231999999996,5.258826133694194,0.0673508549156806
17.484628,5.277827219515705,0.0668334963857976
17.487015999999997,5.299761571643413,0.0663003319984456
17.489396,5.321044297465062,0.0657524244016237
17.491791999999997,5.344608663286848,0.0651736139310997
17.49418,5.360304395749827,0.0646500549971855
17.496564,5.36678102041364,0.0642073617150405
17.498959999999997,5.367111573211341,0.063821461432325
17.501343999999996,5.362366989329571,0.0634768141264435
17.503728000000002,5.3545493695147455,0.0631591455514336
17.506124,5.344170570446062,0.0628878805878872
17.508511999999996,5.32629522507091,0.0626922616117666
17.510908,5.308419879695759,0.0624957309109986
17.513308000000002,5.287331728760688,0.0623312312275297
17.515692,5.260609362638707,0.0622370847382116
17.518076,5.236028866890003,0.0621190380050177
17.520471999999998,5.216243968567049,0.0619781453884998
17.52286,5.1983214013636525,0.0618306957714371
17.525239999999997,5.1821213956529535,0.0616857232751354
17.527636,5.165641850688533,0.0615566718467292
17.530023999999997,5.148882766470392,0.061443114318991
17.532404,5.135196718185307,0.0613058253279234
17.534799999999997,5.11750646840739,0.0611935439723101
17.537188,5.1032613416148624,0.0610875271147221
17.539567999999996,5.0867345748222,0.0610098766475747
17.541964,5.077657132507762,0.0609141323023646
17.544351999999996,5.0775192587387705,0.060765759031892
17.546748,5.076170680156282,0.0606351984943066
17.549144,5.077615598253127,0.0604978756684663
17.551532,5.077570272282753,0.0603953828447855
17.553911999999997,5.07859588149902,0.0602823120740258
17.556312,5.085627792954535,0.0601300200310472
17.5587,5.092380165156329,0.0599946238052043
17.561079999999997,5.103136738850958,0.0598331063257828
17.56348,5.120830780344615,0.0596301238533949
17.565863999999998,5.133170145905078,0.0594812776180128
17.568247999999997,5.145881598517882,0.0593637756357771
17.570644,5.164319814116213,0.05922839115113
17.573031999999998,5.184899900087823,0.0590753334869843
17.575412,5.201615554193459,0.0589380303848372
17.577807999999997,5.22126447460529,0.0587886797377586
17.580196,5.24212409983062,0.0586237869340368
17.58258,5.266708387295064,0.05845232340654
17.584984,5.290361509199728,0.0582846172565568
17.587372000000002,5.319089767783864,0.0580868432866064
17.589751999999997,5.344093364128889,0.0578984292102962
17.592148,5.364952989354218,0.0577425706452605
17.594535999999998,5.393960787192075,0.0575381082467183
17.596919999999997,5.422037419470154,0.0573365112591509
17.599316,5.451604295815452,0.0571021025108045
17.601703999999998,5.480240006600972,0.0568696738932647
17.604084,5.511017587759767,0.0566227762214124
17.606479999999998,5.541934938545425,0.0563687156085671
17.608868,5.576204864517859,0.0560858195125981
17.611247999999996,5.607821063437816,0.0558025004257562
17.613644,5.639716801611495,0.0555018547296872
17.616031999999997,5.673382323106113,0.0551575267041858
17.618428,5.697316880122368,0.0548506751110255
17.620824,5.715245134899372,0.0545743065221934
17.623212000000002,5.737037821542349,0.0542851895864647
17.625591999999997,5.754034910759575,0.0540106533531631
