Time,Force,Position
15.281052,2.21689572974958,0.1652963353513559
15.283447999999998,2.240356172625534,0.1650475784705575
15.285832,2.2603261665457213,0.1647036544769534
15.288212,2.27582732412212,0.1644541527047007
15.290611999999998,2.293238034646318,0.1640152344212674
15.293,2.314932485917071,0.1632889648809778
15.29538,2.333553901254768,0.1627478216110689
15.297776,2.352594625473045,0.1621346264666597
15.300164,2.3748481552512386,0.1613280105695881
15.302544,2.396822145775712,0.1605778952029529
15.304947999999998,2.4155833307402688,0.1600223569858887
15.307335999999998,2.436486386078103,0.1593125198517113
15.309716,2.4601829380952727,0.1584685756045526
15.312112,2.487604152351555,0.1574471687507334
15.3145,2.509158833995448,0.1567485745593358
15.316884,2.5259179182135885,0.1563215108663296
15.31928,2.5417458368719505,0.1559292740678869
15.321668,2.55440817179864,0.1556172604040366
15.328832,2.5719567560918293,0.1555133410993805
15.331212,2.581593276913707,0.1552757160692962
15.333608,2.5925802721759434,0.1549411928896958
15.335996,2.6050575115053998,0.1544903185325211
15.338395999999998,2.61432194527494,0.1542319219059507
15.340787999999998,2.623167070163899,0.1540413513919343
15.343175999999998,2.6325712735602997,0.1537627783896504
15.345556,2.6414636202775017,0.1534610890414645
15.347952,2.6484936358751474,0.1532393280337459
15.35034,2.653009694047179,0.1530808009459068
15.352724,2.6608783274059857,0.1527295609111426
15.355119999999998,2.669026500018514,0.1523384188001336
15.357508,2.676011189645786,0.1519226049221375
15.359888,2.680481921847444,0.1515757375396101
15.426808,2.595766710344178,0.1514331574399637
15.429192,2.6019581081806624,0.1513409432333329
15.431572,2.612805333816039,0.1510770468818066
15.433967999999998,2.6273772216905287,0.1506726955517098
15.436351999999998,2.6378051384453243,0.1504687463081563
15.438736,2.6547512141185687,0.1500337355610721
15.44114,2.6706263546051736,0.1496481187854279
15.443523999999998,2.6912970925175306,0.149064000001999
15.445904,2.7116882911761677,0.148546638242288
15.448299999999998,2.7315676331556062,0.1479971458957377
15.450687999999998,2.750515809575267,0.147473945512679
15.453084,2.770534921181566,0.1468776398311601
15.45548,2.791624967974504,0.1462326475559761
15.539096,2.8222079742467217,0.1458914020104516
15.5415,2.8296572987249475,0.1456434018835754
15.543888,2.835523831337338,0.1454232309802512
15.546268,2.844463399882784,0.1450816287776049
15.548664,2.8506094717488946,0.1448345795905237
15.551052,2.8621102195481973,0.1443543048918882
15.553432,2.87524098104158,0.1437583085900056
15.555836,2.886928720295987,0.1431722548170498
15.558224,2.8978250636174763,0.1425927159894631
15.560604,2.9091407158195457,0.1419641618627065
15.563007999999998,2.927114296566924,0.1411222265099956
15.565395999999998,2.951233949180412,0.1400374564878249
15.567776,2.9710698610473463,0.1391387645301968
15.570171999999998,2.991976708100919,0.1381870137772516
15.572556,3.011812619967853,0.1372883218196235
15.57494,3.034442028514122,0.1362989506531124
15.577336,3.053346774821278,0.1354150033886402
15.579724,3.06959779407596,0.1346022692179405
15.582104,3.0826360077707244,0.1339428021088576
15.584504,3.0987472573985464,0.1331548649939863
15.586888,3.113647802212869,0.1324300067793798
15.589268,3.1221227359073604,0.1319924349586757
15.591672,3.1341825622141046,0.1314766223118701
15.594056,3.1433091222146543,0.1310658167042485
15.59644,3.151364747028565,0.1306967170192427
15.598836,3.1560677966557,0.1304775345115402
15.60122,3.1615622422157523,0.1302553187187847
15.603599999999998,3.1686394796416413,0.130020863781918
15.606004,3.178649983373725,0.129699919254722
15.608388,3.188660487105809,0.1293836267671687
15.610767999999998,3.193083997479224,0.1292100148433265
15.613172,3.1942947022927224,0.1291553124257517
15.61556,3.1979268167332187,0.128989727593087
15.61794,3.202490096733493,0.1288019922008394
15.620344,3.207984542293546,0.1285923557389622
15.622732,3.2173434197195725,0.1282853200363308
15.625112,3.229356024198073,0.1279217222745621
15.627515999999998,3.240297693489936,0.1275906584103068
15.6299,3.249749118714579,0.1273428664265156
15.632284,3.2605037965513386,0.1271160098339582
15.6729,3.3900981546633284,0.1270787650573632
15.67528,3.4008981584704614,0.1270310394523565
15.67768,3.413467945598534,0.1268713296611353
15.680068,3.428319372726744,0.1266338272348535
15.682443999999998,3.441588007989117,0.1264097862718086
15.684852,3.452342685825877,0.1262182206244941
15.68724,3.4647273773567155,0.1259324462430648
15.68962,3.4826065144476077,0.12546223004614
15.692023999999998,3.5041177659789944,0.1248479534096275
15.694411999999998,3.5276311182568,0.1241782996807982
15.696792,3.5484907434821293,0.1235575319060861
15.699187999999998,3.570700843147818,0.1228754597684034
15.701576,3.58532184870842,0.1223592767262157
15.703956,3.6010137894556604,0.121811985206067
15.706352,3.6185680613224576,0.1212273053161599
15.70874,3.6374728076296137,0.1205779673781559
15.71112,3.65093033020496,0.1200310256585691
15.713512,3.661873895354692,0.1195184356604074
15.7159,3.670955129384866,0.1190409097646415
15.718275999999998,3.6821782337883184,0.1184981893836868
15.720691999999998,3.690747611139296,0.1180058145519367
15.723079999999998,3.6948009303182414,0.1175980785305373
15.72546,3.701787515803384,0.1171280372242189
15.727859999999998,3.7011850071834393,0.1168150355029096
15.730247999999998,3.703795304123408,0.1164116840228594
15.732628,3.7090593281158526,0.1159723596131985
15.735024,3.7153942872949366,0.1155057447144869
15.737412,3.719727145727603,0.1150928950889566
15.739792,3.722057903413853,0.1147291259400102
15.742195999999998,3.7229456388611264,0.1143582342238362
15.74458,3.72369360468154,0.1139988339838707
15.746964,3.7222071523300593,0.1136340882356613
15.749359999999998,3.725656067031191,0.1131571949072801
15.751744,3.728173816172544,0.1126983161191446
15.754139999999998,3.731762500500535,0.1122150085957818
15.756536,3.736142580761445,0.1117315455160477
15.823432,3.494727182824655,0.1116941424644152
15.825812,3.5092990706991443,0.1115546208898371
15.828216,3.523731188946774,0.1114291217445175
15.830604,3.544169609433654,0.1111703759739108
15.832983999999998,3.5726164329062007,0.1107290677538626
15.835384,3.6039965226849433,0.1102360116953655
15.837768,3.635656151717406,0.1097159484313545
15.840151999999998,3.668246946309648,0.1091830691848606
15.842556,3.694599121237161,0.1087310970162851
15.84494,3.719228734671978,0.1083138791321715
15.847319999999998,3.745069052920294,0.1078600084022888
15.849728,3.775332881542024,0.1072887642208846
15.852112,3.808529976469949,0.106665166743364
15.854492,3.842146380278456,0.106003993432481
15.856896,3.879906755206656,0.1052604942146147
15.859284,3.918365978269156,0.1044706239456467
15.861664,3.9614810291305487,0.1036253222613925
15.864067999999998,4.002221892193187,0.1027850100003707
15.866452,4.040169258576489,0.1019949474610755
15.868832,4.071318926787624,0.1013378540007047
15.871228,4.103819069439117,0.1006457421341878
15.873616,4.132874089105218,0.0999959631633541
15.875996,4.1630000439579575,0.0993257932177624
15.8784,4.191263667691139,0.098690611186842
15.880784,4.215802629185208,0.0981095585550898
15.883164,4.236477158813304,0.0975897481695069
15.885568,4.258222623628038,0.0970513373335233
15.887956,4.28224972844291,0.0964666843197703
15.890336,4.312283135497031,0.0957858265384258
15.892739999999998,4.340034902551016,0.0951673295661617
15.895124,4.367646899978141,0.0945667109599492
15.897504,4.390043991098932,0.0940656688584899
15.899907999999998,4.410578751100168,0.0935895790776691
15.902295999999998,4.430973741474544,0.0931264304497337
15.904676,4.44457103367675,0.0927573187145751
15.90708,4.4546759810653205,0.0924740676013594
15.909468,4.458122999908582,0.0922704860923784
15.911848,4.461430249124985,0.0920768535969258
15.914252,4.465296576848828,0.0918406261185969
15.916636,4.468371508639753,0.0916016450722834
15.919019999999998,4.466650843004925,0.0914224544285858
15.921424,4.466140882183596,0.0912136811234365
15.923808,4.462837424682933,0.0910324676656041
15.926187999999998,4.459533967182269,0.0908518360242129
15.928584,4.457813301547442,0.090674191129799
15.930972,4.457023801472394,0.0904870518276646
15.933352,4.45888802844982,0.090285740158177
15.935756,4.459681320240607,0.0901061621569369
15.938144,4.455259705725062,0.09001090716605
15.940523999999998,4.450977860836378,0.0899052680824025
15.942924,4.441760648895081,0.0898629108105605
15.945308,4.434685307327061,0.0897825474678441
15.947691999999998,4.426539030572402,0.0897211342660355
15.950088,4.42011531531044,0.0896527468567563
15.952471999999998,4.420489298220646,0.0895039900047572
15.954855999999998,4.421934216317492,0.0893359219804818
15.957252,4.430037062959646,0.0890984486938338
15.959639999999998,4.4390710751615785,0.0888517812455519
15.96202,4.4492685703487656,0.0886421228085358
15.964415999999998,4.4659842244544015,0.0883770148081233
15.966803999999998,4.483211735239236,0.0881314534694052
15.969184,4.496667361956712,0.0879842653003841
15.971588,4.511566010913166,0.087849810554177
15.973976,4.521389523190146,0.0877872560384203
15.976356,4.533075366586684,0.0877091642238848
15.988303999999998,4.570877275769519,0.0876963662262781
15.990688,4.586380329203786,0.0876395104816545
15.993083999999998,4.606678980063807,0.0875353354606565
15.995471999999998,4.632983933163077,0.0873575351280268
15.997852,4.660499591075845,0.0871574297909536
16.000248,4.685081982682418,0.0869955653807341
16.002632,4.710875079102491,0.0868086563280104
16.005012,4.731872578096812,0.0866706961720319
16.007404,4.75501194746441,0.0865012649091732
16.009791999999997,4.776568524966171,0.0863283414679642
16.012172,4.789604842803068,0.0862296859955337
16.014572,4.804922800640103,0.086088035482305
16.016959999999997,4.822801937730993,0.0858841874171334
16.019356000000002,4.845104585195299,0.0856080870876598
16.021752,4.875695174898993,0.0852202577852636
16.024140000000003,4.902700871990434,0.0848538635884061
16.026524000000002,4.9270528420294,0.0844984129633855
16.02892,4.957039027255278,0.0840456088953578
16.031308000000003,4.98544242061532,0.0835786874094468
16.033692000000002,5.008119050989833,0.0831676229342193
16.036084000000002,5.029632198379089,0.0827213953979288
16.038472,5.045977661290258,0.0822919028946924
16.040852,5.054594260469477,0.0819378488914091
16.043256,5.05641316147653,0.0816515102736621
16.045643999999996,5.055578335431108,0.0813773075821504
16.048023999999998,5.049947911959933,0.0811428971906243
16.050424,5.04324655330212,0.080924259656626
16.052811999999996,5.036824733898027,0.0806863796562417
16.055191999999998,5.028680353001238,0.0804521664665815
16.057588000000003,5.021746676917948,0.0801936172071067
16.059972000000002,5.017746267140852,0.0799052431629618
16.062356,5.0130942310577,0.0796051195603325
16.064752,5.007650799041628,0.0793023277989304
16.067140000000002,4.997411769599804,0.0790390179617443
16.069519999999997,4.984239473851786,0.0788024118805096
16.07192,4.974140214036823,0.0785312385553965
16.074308000000002,4.966974220528056,0.0782341557789578
16.076687999999997,4.953662155153177,0.0780042583223594
16.079084,4.950360593510383,0.0776779899517955
16.081471999999998,4.944777391867452,0.0773857133896962
16.083868000000002,4.942779082836773,0.0770811973041672
16.086264,4.94329473123171,0.0767784669921598
16.088651999999996,4.945952249999923,0.0764452302443945
16.091032,4.950472099887692,0.0761004372588404
16.093432,4.950428669775189,0.0758285377388277
16.095819999999996,4.956112002648215,0.0755143998395175
16.0982,4.9619351051481,0.075191773036816
16.100595999999996,4.971622639513959,0.0748416741708248
16.102980000000002,4.979680160185739,0.0745414005503066
16.105359999999997,4.984245336043883,0.0743014431716732
16.10776,4.990812612648444,0.0740426572657176
16.110144,4.998031515559063,0.0737981051435534
16.112527999999998,5.003899944029323,0.0735855697932014
16.114924000000002,5.0056244013798885,0.0734180578792232
16.117308,5.005998384290094,0.0732832835519884
16.119708000000003,5.003299331267245,0.0731817284939638
16.122104,4.999529343057757,0.0730940996754711
16.126872,4.985656303317569,0.0730503261999413
16.129275999999997,4.98239817178728,0.0729844906093831
16.131664,4.976858400256853,0.0729550273799397
16.134043999999996,4.973320729472844,0.0729072705999934
16.13644,4.970434684994891,0.0728724823899325
16.138827999999997,4.96754864051694,0.0728376116807742
16.141208,4.972019372718598,0.0727176182904261
16.143603999999996,4.977561040106893,0.0725860759525786
16.145992,4.982683398614608,0.0724809243748776
16.148372000000002,4.98273062044285,0.0724242283166713
16.150776,4.983336920778534,0.0723323063954928
16.153163999999997,4.9874355659278535,0.0721832925249044
16.155544,4.992465376636953,0.0720313912247382
16.157939999999996,4.998566122532689,0.0718680310883791
16.160328,5.005458264361344,0.0717086315328527
16.162708000000002,5.020219039548807,0.0714888774859027
16.165112,5.030975613243436,0.071301185581118
16.167499999999997,5.041452647684344,0.0711302126020062
16.16988,5.051138286192334,0.0709550329775931
16.172275999999997,5.062174399140683,0.0707498587411997
16.174664,5.081638223955279,0.0704477878253624
16.177044000000002,5.094816207276906,0.0702193076360306
16.17944,5.107482333919335,0.0699685402778871
16.181827999999996,5.116423798322649,0.0697362324520159
16.184207999999998,5.126715737166322,0.0694751576773259
16.186604000000003,5.136867906383135,0.0692229700178901
16.188992,5.1431556437339765,0.0689970227190086
16.191375999999998,5.143576848472426,0.0688113645487506
16.193772000000003,5.145488297278095,0.0685882426440007
16.19616,5.150472782016819,0.0683365747336397
16.198544,5.156248662688461,0.0680897174469272
16.200944,5.1609536081734655,0.0678562887127315
16.203328,5.166589719218248,0.067622199222273
16.205712,5.169432333583695,0.0673993857052695
16.208108000000003,5.177909163136057,0.0671048727202817
16.210492000000002,5.181450625635805,0.066843993567036
16.212888,5.190486533695607,0.0665159972227604
16.215283999999997,5.2018040817555455,0.0661569014980265
16.217672,5.218988162427873,0.0657672083289433
16.220052000000003,5.236312012727063,0.0653727575257085
16.222448,5.248560726346779,0.065019902151587
16.224835999999996,5.261088979220216,0.0646499558456338
16.227220000000003,5.27547956321321,0.0642754715592798
16.229616,5.289730377579344,0.0639086184791594
16.232003999999996,5.302910256758839,0.0635548953805328
16.234384,5.316369675192055,0.0631855673748405
16.236779999999996,5.330760259185048,0.0628140745213015
16.239168,5.346361547991542,0.062420571942823
16.241563999999997,5.3578188656783405,0.0620616862589466
16.24396,5.370347118551778,0.0616955691678198
16.246347999999998,5.385017241798491,0.0613109341191944
16.248728,5.397685264298788,0.060938751342235
16.251132,5.401553487880501,0.0606109940024308
16.253515999999998,5.404350776275575,0.0602924303905279
16.255899999999997,5.397789187244622,0.0600526221697362
16.258296,5.396442504520002,0.0597695664679893
16.260683999999998,5.392953951422106,0.0595072397446461
16.263064,5.387603067204652,0.0592491597051781
16.265459999999997,5.37410401037467,0.0590480726115083
16.267848,5.360465183917827,0.0588547861879786
16.270232,5.350690789326959,0.0586455282945298
16.272627999999997,5.343709891415425,0.0584307319158108
16.275016,5.33672899350389,0.0582164459354151
16.277395999999996,5.330819030778995,0.0579920852778539
16.279792,5.3269111688005175,0.0577572083228929
16.282179999999997,5.324865637941596,0.0575199506042278
16.28456,5.320678236709397,0.0573006639901653
16.28696,5.320075728089451,0.057083003659269
16.289344,5.325479521708756,0.0568332132070528
16.291724000000002,5.327670509768146,0.0566118563139522
16.294123999999996,5.327579857827399,0.0564174116683572
16.296512,5.331353637752624,0.0562099855801926
16.298896,5.343927216596436,0.0559660643026898
16.301291999999997,5.3600856880525,0.0557246337388574
16.303675999999996,5.382110692120954,0.0554584553406057
16.306075999999997,5.401854056189272,0.055221863951851
16.308472000000002,5.424111377683204,0.0549979094022592
16.310859999999998,5.44902242622961,0.0547794408734489
16.31324,5.474864640335794,0.0545567212129456
16.315635999999998,5.497354279255204,0.0543683193445786
16.318024,5.517702047801335,0.0541992509369092
16.320408,5.534045614854634,0.0540510138580472
16.322803999999998,5.550249412281072,0.0539117869060477
16.325192,5.565894131200069,0.0538031089297194
16.327571999999996,5.576044404559013,0.053745835835778
16.329968,5.582190476425124,0.0537086128397469
16.332355999999997,5.592061210530349,0.0536669272572773
16.334736,5.601000779075794,0.0536268850209981
16.337136,5.605796376501548,0.0536141861454961
16.339523999999997,5.608589873180882,0.0536110154783115
16.341904,5.612594074673716,0.0535917366128064
16.344304,5.614456405793272,0.0535897482929882
16.346688,5.6127338443005765,0.0535840883490903
16.349072,5.612361757248238,0.0535552325388574
16.351467999999997,5.610406878330065,0.0535133253004387
16.353856,5.605518733105696,0.0534811486307587
16.356251999999998,5.601049896761908,0.0534269686324886
16.358648000000002,5.596069203738922,0.0533516474045488
16.361036,5.598585057022406,0.0532214744129586
16.363416,5.604733024746386,0.0530459741354572
