Time,Force,Position
15.094195999999998,2.220902469278922,0.1640503538237126
15.096576,2.2299326897651155,0.1639880280299495
15.09898,2.240173615064808,0.1638329195615063
15.101363999999998,2.2488317484986635,0.1637174172572018
15.103744,2.2576296515593803,0.1635756446194923
15.106148,2.2704317561129304,0.1631925468501079
15.108536,2.284025256599399,0.1628139254674818
15.110919999999998,2.298410153018785,0.1624169690743513
15.113316,2.3135864453710893,0.1619888293881393
15.115704,2.331835773656449,0.1613905124449466
15.118083999999998,2.349805562688088,0.1608521830324727
15.120488,2.369637682839284,0.1602322797769967
15.122876,2.390400968550258,0.159582381916567
15.125255999999998,2.4154479950077863,0.1586886614909017
15.127652,2.439983164786117,0.1577972501524798
15.13004,2.4632150819523315,0.1569062409435249
15.132424,2.482582567252573,0.1562105555860335
15.13482,2.4992963255003398,0.155615737789815
15.137204,2.513216587068771,0.1551488457350149
15.139587999999998,2.536355956436369,0.1542119005136333
15.141984,2.559355556177106,0.1533127825487348
15.144367999999998,2.587150753343596,0.1522264977192917
15.146752,2.612012684203891,0.1512789143967348
15.149148,2.640739046930158,0.1501731425189023
15.151535999999998,2.668394474469787,0.14911534358826
15.153916,2.6967015283154745,0.1481006009494835
15.15632,2.7220753158549664,0.1472363950438128
15.158708,2.7445158370882625,0.1464858162137778
15.161088,2.769377767948557,0.1455943918852887
15.163492,2.7902354973160186,0.1448938120266521
15.16588,2.810441600377421,0.1441920349092639
15.168256,2.8270628108265705,0.14360459241907
15.170664,2.84396356052944,0.1429935526461689
15.173048,2.855928943179698,0.1425952149484175
15.175432,2.8644492028445634,0.142288296610763
15.177824,2.8746920240021248,0.141942232078902
15.180212,2.886005780346325,0.1415418077327592
15.182595999999998,2.9029065300491945,0.1409648964688353
15.239928,2.968539483079547,0.1409347620579253
15.242323999999998,2.974730880916032,0.140871849182416
15.244711999999998,2.9815739050585743,0.1408172717767895
15.247092,2.987625533268199,0.1407770505688667
15.249488,2.999823233343934,0.1405012397527421
15.251876,3.01802723565892,0.1400051887643897
15.254276,3.0362312379739063,0.1395240003189452
15.256672,3.051781513236416,0.1391146242309855
15.259056,3.0676113277526484,0.138678498194299
15.26144,3.0873527959630964,0.1380330461992547
15.263836,3.107513573054125,0.1373355853775607
15.266224,3.124741083838958,0.1367280586382314
15.268608,3.140525572384816,0.1361142859926761
15.271004,3.1556584346246157,0.1354936233649884
15.273392,3.172374088730251,0.13485442033228
15.275771999999998,3.185225310969914,0.1343364083767355
15.278176,3.206224705822104,0.1335117699013834
15.280564,3.2190759280617662,0.1329811783123325
15.282948,3.23085621511479,0.1324982957957298
15.285344,3.2419848758617564,0.1320149700724827
15.314016,3.2180125763066045,0.1319058100430859
15.316404,3.218571654814045,0.1318422948634255
15.318788,3.22341447406804,0.1316284462433586
15.321184,3.228676602202616,0.1313702437766928
15.323572,3.237291305523967,0.1309835669394091
15.325956,3.240039476232928,0.1307603051321557
15.328352,3.248002553248221,0.1303562899234996
15.330736,3.2570365654501536,0.1299162995043905
15.33312,3.260343814666556,0.1296227538117069
15.335516,3.264210142390399,0.1292629107281678
15.337904,3.264491577501988,0.128979672538418
15.340288,3.264213934106137,0.1287592874750371
15.342684,3.26249326847131,0.1285371603680672
15.345072,3.2598414372767044,0.1283393427123331
15.347452,3.263567995373687,0.1279971890114601
15.349848,3.2692966542170865,0.1275928679136045
15.352236,3.2821025504863752,0.1269608444600239
15.4072,3.1905405231248283,0.1267117119739349
15.409588,3.19505658129686,0.1266177898977389
15.411968,3.202226366521366,0.1264706633845868
15.414364,3.2163336195449013,0.1261155745607463
15.416752,3.2337462259269683,0.125716841489653
15.419132,3.2568855952945666,0.1251632990614598
15.421532,3.2753691368632727,0.1247392684992429
15.42392,3.295435470297815,0.1243200287668389
15.426304,3.3192264659714703,0.1238127400802987
15.4287,3.338082094592514,0.1234503404540191
15.431088,3.3541442265342223,0.1231527492096134
15.433468,3.368344027356375,0.1229045222935426
15.435864,3.381333123365029,0.1227105247577896
15.438252,3.398046881612796,0.1224350742186743
15.440632,3.420347633219232,0.1220436387012791
15.443032,3.4435795503854467,0.1216417908128768
15.44542,3.4666716979248013,0.1212557861363735
15.4478,3.4959099173302666,0.1206996340817989
15.4502,3.5234255752430355,0.1201663360515675
15.452584,3.5529433339022214,0.1195995682175519
15.454968,3.585534128494463,0.1189574843029944
15.457364,3.617473296780645,0.1183219164324274
15.459752,3.649412465066829,0.117683386519535
15.462136,3.678138827793097,0.1171487039338485
15.464532,3.7042114634668897,0.1166527513841298
15.46692,3.728421768021126,0.1162017995229974
15.469304,3.754494403694919,0.1157229727501492
15.4717,3.77577144194296,0.1153486941963723
15.474088,3.796536623511803,0.1149575334247776
15.476468,3.820374841013702,0.1144917484993637
15.478868,3.8470065551949353,0.113978381558784
15.481256,3.869354528629616,0.1135786887255672
15.483652,3.891190645385097,0.113158561974318
15.486052,3.911443970274744,0.1127488522950886
15.48844,3.9269016977386375,0.1124381636969603
15.49082,3.940357324456115,0.1121759269197071
15.493216,3.952742015986953,0.1119411046122174
15.495603999999998,3.961122506024958,0.1118001210638731
15.497988,3.97150509680938,0.1116152863193361
15.500388,3.9770920901680498,0.1115230905988047
15.502776,3.981887687593802,0.1114360315938126
15.505159999999998,3.984820953899997,0.1113794903302774
15.507556,3.990175629833189,0.1112451384142362
15.509944,3.995018449087184,0.111087392958199
15.512327999999998,4.005076174647511,0.110810710413539
15.514724,4.016204835394477,0.1105110502955169
15.517112,4.022537898715691,0.1102937567949263
15.519491999999998,4.02621723498443,0.1101036348718134
15.521892,4.026032139387198,0.1099834345419361
15.52428,4.023053547110628,0.109906730259201
15.526659999999998,4.019563098154862,0.1098073545563343
15.52906,4.021567094759147,0.1095633625008929
15.531448,4.024362487296352,0.1093186812165336
15.533827999999998,4.02515577908714,0.1091133093419127
15.536228,4.025437214198729,0.1088836082047248
15.538616,4.022925152630983,0.1086955960189632
15.540995999999998,4.025907536623291,0.1083639139816211
15.543396,4.030100625429097,0.1079949238063604
15.545784,4.033502318301986,0.107629291394655
15.548168,4.034110514495539,0.1073012255413827
15.550568,4.030714509196258,0.1070544815025324
15.552952,4.024245467963922,0.1068741300898574
15.555328,4.017636657104727,0.1067061759136126
15.557724,4.013169716618807,0.1064856956155149
15.560107999999998,4.0017653083338605,0.1063968038663111
15.562499999999998,3.9866362378097993,0.1063612047434667
15.564896,3.9737888072858754,0.1062617333686427
15.567279999999998,3.968949779747619,0.10600382499096
15.56966,3.9698375151948926,0.1056531610064948
15.572064,3.970725250642166,0.1053010960883358
15.574452,3.969331346089302,0.1050130082078416
15.576828,3.969660003029135,0.1047153073963827
15.579232,3.96812632884941,0.1044433486323009
15.58162,3.97059685616252,0.1040966902714881
15.583999999999998,3.9766522760878833,0.1037121113235527
15.586404,3.9877828326927194,0.1032283519096938
15.588788,3.992487778177722,0.1028950282584522
15.591167999999998,3.992117586983254,0.1026574954959183
15.593572,3.991328086908205,0.102455930429751
15.59596,3.997196515378465,0.1021547383154781
15.59834,4.003064943848725,0.1018500044064448
15.600732,4.016010609744874,0.101410113570249
15.60312,4.022810203774912,0.1010923451432242
15.6055,4.026396992245035,0.1008489962989908
15.607904,4.0338482125811295,0.1005412755592517
15.610288,4.045955260716117,0.1001719362567791
15.612668,4.062019288515694,0.0998047778635584
15.615064,4.073799575568718,0.0995413836259215
15.617451999999998,4.082506826688687,0.0993408065031711
15.619832,4.092936639301352,0.0991286943801165
15.622227999999998,4.102435286354238,0.0989261858905285
15.624615999999998,4.103925530421457,0.0988668059196367
15.627012,4.10928020635465,0.0987491951197047
15.629408,4.1146348822878425,0.0986340134072017
15.631792,4.118127227101478,0.0985425369784132
15.634172,4.120269097474756,0.0984976432668939
15.636568,4.123481903034671,0.0984294779718025
15.638951999999998,4.134563341953394,0.0982374216802946
15.641336,4.145924320125838,0.0980223035707874
15.643731999999998,4.158496003111779,0.0977807410249634
15.646116,4.173069786844137,0.0975048855336855
15.648496,4.182708203523885,0.0973091261157822
15.650892,4.199423857629521,0.0969933479989784
15.65328,4.218141612481573,0.0966431288947353
15.65566,4.235788432146988,0.0963167043061178
15.658076,4.247708488826872,0.0960656489793059
15.66046,4.254600630655527,0.0958342450773974
15.66284,4.259630441364625,0.0956225664886863
15.665244,4.262797920954166,0.0954309598807633
15.667632,4.267036335730347,0.0952193181979127
15.670011999999998,4.275278951999361,0.0949439605128106
15.672416,4.289807409761346,0.0945478978498087
15.674804,4.300471435657357,0.0942083939973832
15.677184,4.305920555247037,0.0939645209689695
15.67958,4.310298739650078,0.093741790209208
15.681964,4.314165067373921,0.0934969262123458
15.684347999999998,4.318031395097764,0.0932507940386597
15.686744,4.316170959836075,0.0930784566320888
15.689127999999998,4.315381459761026,0.0928853694028091
15.691512,4.3068630959540295,0.09279374714074
15.693916,4.30155753770695,0.0926394415260361
15.6963,4.295320813900091,0.0924940154768798
15.69868,4.282426161547924,0.0924267442368803
15.701076,4.272604545128813,0.0923076810826714
15.703464,4.263342007217141,0.0921442087183068
15.70586,4.258363210052025,0.0918988767059453
15.708256,4.255386513633325,0.0916230471869927
15.710644,4.25548285314768,0.0912971245688845
15.713024,4.260654329341509,0.0908939078525521
15.715428,4.264243013669501,0.0904899562341141
15.717812,4.266900532437714,0.0900984210171017
15.720192,4.265553849713093,0.0897634736871669
15.722596,4.26485879329453,0.0894406035226324
15.72498,4.270589347995799,0.0890020821584301
15.727364,4.282465974563179,0.0884761567602437
15.729756,4.292060961130421,0.0879975412849428
15.732144,4.305799918817357,0.0874577807894437
15.734524,4.3223323731836265,0.0868927883972646
15.736928,4.338864827549898,0.0863330844689676
15.739312,4.358842404901561,0.0857554813704793
15.741692,4.373465306320033,0.0852749328899374
15.744096,4.38967099960434,0.0847965734583616
15.746484,4.413326017366874,0.084253848286821
15.748864,4.432557524755994,0.0838000954281828
15.751264,4.451090184010813,0.0834006801970928
15.753648,4.46892399513133,0.0830574674633156
15.756032,4.486198727744408,0.0827569785992717
15.758435999999998,4.503333690730624,0.0824701850888785
15.76082,4.515113977783648,0.0822741145790769
15.763204,4.523401920023036,0.0821512022736494
15.765596,4.533552193381981,0.0820160190425233
15.7871,4.588115082640826,0.0819137354734582
15.789488,4.599521386783642,0.0818769003968441
15.791868,4.612278165366818,0.0818047298869033
15.794264,4.622101677643799,0.0817632859782998
15.796652,4.636348700294194,0.0816491590381303
15.799032,4.652737593317866,0.0815041455818428
15.801428,4.6703371911550375,0.0813353914924131
15.803816,4.691009824925263,0.0811309077230151
15.8062,4.710471753881991,0.08095208383929
15.8086,4.735288358771912,0.0806966878320434
15.810988,4.765040330714444,0.0803894233176211
15.813368,4.789577396350644,0.0801517565671251
15.815772,4.8131832964270655,0.0799209980005358
15.81816,4.83585803094371,0.0796980984581187
15.82054,4.859743470273853,0.0794496106347789
15.822943999999998,4.884839614417492,0.0791725336096309
15.825332,4.909982980389376,0.0788369871592188
15.827712,4.936337051174759,0.0784786298333512
15.830108,4.96390182677364,0.0781011029468432
15.832496,4.986671004946769,0.0777642696921303
15.834876,5.011442283866315,0.0774149039210681
15.837272,5.033140526852805,0.077106071070717
15.83966,5.053628065025798,0.0768225349127008
15.84204,5.076397243198928,0.0765058059698047
15.844436,5.094231054319446,0.0762359162488601
15.846824,5.10927136876063,0.0759830343320152
15.849204,5.122589121709115,0.0757337426602942
15.851604,5.134184313164905,0.075488865210408
15.853992,5.148061144620833,0.0752095012268332
15.856388,5.160867040890121,0.0749481192670046
15.858788,5.175302950853489,0.074644082001707
15.861171999999998,5.193231205630493,0.0742835067693557
15.863556,5.211578769288077,0.0738986620215148
15.865951999999998,5.23113703775916,0.07349488404058
15.868339999999998,5.251766241416882,0.0730804104038284
15.87072,5.2746770850747415,0.0726332843063043
15.873124,5.295957915038521,0.0722330145260763
15.875512,5.315376413882743,0.0718430586357545
15.877892,5.329719776047493,0.0714997561373931
15.880283999999998,5.345134073398882,0.0711419345825203
15.882672,5.353471133324383,0.0708484402989508
15.885052,5.359154466197407,0.0705586826402467
15.887451999999998,5.369121539816987,0.0702223007699681
15.88984,5.374293016010815,0.0699158913724658
15.89222,5.38118705369734,0.0696088627645813
15.894624,5.39129389694378,0.0692668894716315
15.897011999999998,5.399258869816943,0.0689484206000956
15.899392,5.404150806757049,0.0686579246386307
15.901796,5.407320182204461,0.0683685224260493
15.904179999999998,5.40555419059926,0.0681139580105744
15.906564,5.398573292687726,0.0679109558091159
15.90896,5.388379589216277,0.0677428450227948
15.911343999999998,5.377906346491107,0.0675906795809768
15.913724,5.365151463765801,0.0674696439720124
15.91612,5.34853214917452,0.0673698466058157
15.918508,5.33191283458324,0.0672688173281017
15.920888,5.320787965552013,0.0671024063734773
15.923291999999998,5.31245659320012,0.0669262271851567
15.925676,5.310131523087478,0.0667069448964511
15.92806,5.308877388161474,0.066476227127429
15.930464,5.308973727675831,0.0662161080585032
15.932852,5.311072167936604,0.0659409278396397
15.935235999999998,5.306884766704404,0.0657257476882712
15.937632,5.302417826218486,0.0655254181876121
15.940015999999998,5.2980906553594265,0.0653169398514757
15.9424,5.292273240433149,0.0651446663276493
15.944795999999998,5.287526760693509,0.0649604673826779
15.947183999999998,5.281057719461174,0.0647722799801952
15.949564,5.274448908601977,0.0645920172026109
15.951968,5.272915234422253,0.0643722638698321
15.954356,5.273104121735226,0.0641541668964969
15.956736,5.276366044981255,0.0639106958320105
15.959132,5.28149029934684,0.0636626534006825
15.961519999999998,5.286754323339284,0.0634056220251977
15.9639,5.295743009570842,0.0631365273551947
15.966295999999998,5.300308185428985,0.0629192487537166
15.96868,5.298307980540439,0.0627772593022335
15.97106,5.291232638972419,0.0626735037526536
15.973463999999998,5.279873556657844,0.0626134414936085
15.975851999999998,5.269305870276189,0.0625584366174572
15.978232,5.264464946880063,0.0624792808985084
15.980631999999998,5.261626124230355,0.0623870951207623
15.983016,5.261208711207641,0.0622573825481888
15.985396,5.265726665237541,0.0620997118192619
15.987799999999998,5.268661827401607,0.0619305568650224
15.990187999999998,5.270014197699834,0.0617502053824638
15.992568,5.273368668744481,0.0615573913936099
15.994972,5.284452003521073,0.0613308230058158
15.99736,5.294464403111027,0.0611147500065737
15.99974,5.301263997141065,0.0609302382999755
16.002136,5.308343130424824,0.060730055293495
16.004523999999996,5.314351328521943,0.0605407769049619
16.006904,5.320778835499644,0.0603299409992577
16.009304,5.327206342477344,0.0601186255487855
16.011688,5.336706885388099,0.0598885098466389
16.014072,5.350630938672268,0.0596109085829505
16.016475999999997,5.368187106396935,0.0592805284530528
16.018859999999997,5.391097950054793,0.0589018606528985
16.021244000000003,5.415359268153012,0.0584973779497998
16.023648,5.437898024758534,0.0580900858296612
16.026035999999998,5.4565723494980825,0.0577027535281535
16.028416,5.470171537558159,0.0573475737997274
16.030811999999997,5.484282582297431,0.0570155201090209
16.0332,5.496531295917147,0.0566901189499779
16.035580000000003,5.51129396696248,0.0563759926871856
16.037979999999997,5.526708264313867,0.0560757531200936
16.040363999999997,5.542122561665256,0.0557777736655883
16.042748000000003,5.552461722337174,0.055511851911365
16.045152,5.5646632141286485,0.0552436846624407
16.047536,5.579006576293399,0.0549582179344582
16.049915999999996,5.593210168831289,0.0546811183128837
16.05232,5.606482595809402,0.0544052977637956
16.054707999999998,5.613469181294543,0.0541744110296552
16.057088,5.6236685723396,0.0539186373104709
16.059492,5.628932596332044,0.053685371736196
16.061875999999998,5.634196620324489,0.053453670726556
16.064256,5.639041335436354,0.053245588682883
16.066648,5.6402539361077215,0.0530850245785785
16.069035999999997,5.640395601592451,0.0529325903032907
16.071412000000002,5.641188893383239,0.052793926116267
16.073816,5.638629609987251,0.0526867612513343
16.076203999999997,5.640726154390152,0.0525752320736477
16.078584,5.639517345434523,0.0524443682623641
16.080987999999998,5.632302234239643,0.0523399433313376
16.083371999999997,5.626158058231402,0.0522275990492081
16.085752,5.620293421476882,0.0521002677173666
16.088155999999998,5.615220180655279,0.0519801178917525
16.090539999999997,5.610286709460537,0.0518521310831686
16.09292,5.604422072706013,0.051724933391274
16.095323999999998,5.594553234458658,0.0516145610651489
16.097707999999997,5.587757432144358,0.0514878675867181
16.100088,5.583755126509396,0.0513596243856544
16.102483999999997,5.585759123113681,0.0512056228328468
16.104867999999996,5.586272875650749,0.0510823647428453
16.107264,5.584784527441399,0.0509666396735068
16.109659999999998,5.58180593516483,0.0508809112558012
16.112048,5.575614537328345,0.0508185110493635
16.114427999999997,5.571984318745719,0.0507184063369395
16.116832000000002,5.56942503534973,0.0506103040981475
16.11922,5.565934586393963,0.0505024449200068
16.1216,5.566727878184749,0.0503629963041828
16.123995999999998,5.566078147736561,0.0502028739121304
