Time,Force,Position
19.685508,2.2004521035518203,0.1551474386036458
19.68795200000001,2.2790741525908262,0.1541704789931356
19.690396000000007,2.354997148606983,0.1530472320373935
19.692836,2.4280813219734307,0.1518350458950437
19.69528000000001,2.497395507130392,0.1505979583892182
19.697720000000004,2.560705285905972,0.149377849767712
19.700164,2.613587147926755,0.148590323444716
19.70261600000001,2.660045294685577,0.1478958359661536
19.827292,2.766360513803109,0.1475369052914704
19.87130400000001,2.7839090980962986,0.1474650703522331
19.873756,2.7902874873878867,0.1472621121780573
19.876192000000003,2.796386337425754,0.1470973433454774
19.878636,2.7994121515305657,0.1470676438502901
19.881076000000007,2.803508900822017,0.1469905292219432
19.883520000000004,2.809607750859884,0.1468369358389001
19.885964,2.8226440686967806,0.1464274727614638
19.888400000000004,2.842338315078986,0.1458037175161315
19.890856,2.866967928513802,0.1450122220381462
19.893296000000007,2.893180333814456,0.1441951562815418
19.895740000000004,2.9189734302345283,0.1434398151270102
19.898184,2.9509125985207123,0.1424226585430522
19.90063600000001,2.979079882739539,0.1416277640208926
19.903076,3.0073869365852257,0.1408128047696545
19.905528000000004,3.036904695244411,0.1399640168650442
19.907964000000007,3.063908496477983,0.1391690113171671
19.910408000000004,3.0974776784582456,0.1381022264829289
19.912852,3.134119896371563,0.1369153283789805
19.91529600000001,3.173043754285019,0.1356314590859797
19.91774000000001,3.209313885146,0.1344228141064634
19.92017600000001,3.240788418581229,0.1333875786164206
19.92262000000001,3.2663964194040678,0.1325576920819616
19.92506,3.2930753554135443,0.1316879963487658
19.927504,3.3178919603034647,0.1308609762306735
20.039996,3.224093618912155,0.1308475509080623
20.04244,3.228145042233232,0.1306373813890728
20.04488400000001,3.234338335927586,0.1303526360820078
20.047328000000007,3.2393209248084407,0.1301207438949638
20.04977600000001,3.2460260751819927,0.1298565489197013
20.05221200000001,3.253243082234742,0.1296209585954917
20.054664,3.2635331252205466,0.129284836221801
20.057108,3.275685499325908,0.1289033859512692
20.059548000000007,3.2856960030579923,0.1285987679745221
20.061992000000004,3.292121614177823,0.1283722314559305
20.064436,3.3059965497758808,0.1279636603102384
20.066884,3.3180091542543817,0.1275926791172361
20.069328,3.3320238594792992,0.1271587906436437
20.07176000000001,3.3455267080250195,0.1267093219643843
20.07420400000001,3.356887686197462,0.1263378434553097
20.07664800000001,3.3673174988101278,0.125996286777934
20.079092000000003,3.3780268506765125,0.1256284509309045
20.08153200000001,3.3896673681026765,0.1252458789762447
20.083968,3.4051723173948143,0.1247582897820248
20.086424000000008,3.424961007433505,0.1241234944887403
20.088868000000005,3.4348789633669723,0.1237695518825073
20.091312,3.448940890420134,0.1233073897068894
20.093760000000003,3.4620716519135164,0.1228721858836592
20.09621200000001,3.477763592660757,0.1223279371577026
20.098656000000005,3.4946662382214964,0.1217377793357337
20.101104000000007,3.5109172574761773,0.1211451783273962
20.103548000000004,3.524235010424664,0.1206222647326637
20.105992,3.538623698559788,0.1200734434008388
20.10844,3.554223091508411,0.1194751614295474
20.110884,3.5704741107630924,0.1188861068783697
20.11332400000001,3.5870046692714945,0.1182847706486017
20.11576000000001,3.6073996596458695,0.1175923623194229
20.11820800000001,3.627422562967907,0.1168688811084158
20.120648000000003,3.646094991849586,0.1162110743178397
20.123092,3.665698586291044,0.1155327737690331
20.125544000000005,3.6820893751725854,0.1149485755101628
20.127988,3.6966178329345696,0.1144031850311962
20.13044400000001,3.709283959576998,0.1138982928141916
20.132884000000004,3.723300560659785,0.1133429351441132
20.135332000000005,3.7333129602497386,0.1128839858820196
20.137776,3.749052122825223,0.1123063127202104
20.140228000000008,3.754780781668622,0.1119707406769372
20.142668,3.7587868790193246,0.1116556872841158
20.14512000000001,3.761302732302808,0.1114129096422319
20.147564000000003,3.762887420026514,0.1111873316819316
20.150008,3.763820481444162,0.1109521303680312
20.152456,3.768617974727783,0.110640336861173
20.15490000000001,3.771692906518708,0.1103492695394448
20.157340000000005,3.7736969031229934,0.1100864354618223
20.159776000000008,3.776492295660198,0.1098218318898856
20.162232000000003,3.772350220398373,0.109705607818191
20.16467200000001,3.768208145136549,0.1095894137123965
20.167116000000007,3.764158617673341,0.1095365533992212
20.16956800000001,3.762111190956551,0.1094404370384239
20.17201200000001,3.7591325986799817,0.109359266216611
20.174468000000005,3.761229143082885,0.1091641189264693
20.17690800000001,3.763837544164985,0.1089926357309681
20.181792,3.761929887075054,0.1088829790445734
20.184240000000003,3.7616975696495767,0.1088326014184952
20.186684,3.7613254825972393,0.1087956335609263
20.189124000000007,3.7654694537169338,0.1086958106791803
20.191572000000008,3.770125281515825,0.1086199187380378
20.194016000000005,3.774501570060996,0.1085699158476196
20.19645600000001,3.780600420098864,0.1085035848873136
20.198896000000005,3.7881422923757073,0.1084479651551749
20.20134800000001,3.795823934279411,0.1083820676344455
20.203788000000003,3.804948598422091,0.1083269133446986
20.20624400000001,3.8170065288709663,0.1082174165369188
20.208684000000005,3.8294837682004217,0.108072001529684
20.211132000000006,3.8456856697689914,0.1078649931096264
20.213576000000003,3.86188757133756,0.1076613748855287
20.216024000000004,3.877577616226931,0.1074344588568019
20.218468,3.889263459623468,0.1072892693067877
20.220920000000007,3.903882569326201,0.1070906637866985
20.22335600000001,3.919293074961852,0.1068992941249714
20.225800000000007,3.938568012463476,0.1066459541703325
20.228248000000008,3.959193424405459,0.1063405482489248
20.230688,3.98210047634758,0.1059673969508203
20.23313200000001,4.005938693849479,0.1055874744380521
20.23557600000001,4.0281941194855415,0.1052145872789541
20.23802000000001,4.0512881628827655,0.1047740485140357
20.24046,4.07387034960079,0.1043093348729376
20.24290400000001,4.097942780386036,0.1037851971216814
20.245356,4.1205721889323055,0.1032572403762339
20.247792000000004,4.1373350648661855,0.1028252004557187
20.25024400000001,4.149162573747453,0.1024811753668886
20.252688000000006,4.159407290762883,0.1021409271015548
20.255128,4.169931547032036,0.1017830521395367
20.25757200000001,4.178174163301049,0.1014855690102862
20.260028000000005,4.1919112251301165,0.1010646912178182
20.262472,4.206439682892102,0.1006480704322665
20.264924000000008,4.221247679907807,0.1002106101034148
20.267368000000005,4.239408252110287,0.0996918545757469
20.26980800000001,4.25677742837985,0.0991800318994808
20.27225200000001,4.267768215357825,0.098739180280892
20.274692,4.270518281924656,0.0983872269734475
20.277144000000007,4.271126478118209,0.0980789812043442
20.279588000000004,4.271734674311762,0.0977709727649422
20.282032,4.270620309012619,0.0974755060416127
20.284472000000008,4.270157570019533,0.0971923705254071
20.286916000000005,4.265411090279894,0.0969972038412036
20.28936800000001,4.262387172032951,0.0967914380721922
20.291812000000007,4.261085815278704,0.0965771131662337
20.294264000000013,4.259504919270737,0.0963851410701298
20.296704000000005,4.2628593903153815,0.0961162673996989
20.299144000000013,4.271940624345557,0.0957724464469951
20.30158800000001,4.278088592069537,0.0954696200486799
20.304044000000005,4.2799528190469625,0.0952551587582326
20.306488,4.285169621211164,0.0949648046332334
20.30892800000001,4.2830296466957565,0.0948166527750215
20.31137200000001,4.279167110687652,0.0946784251176277
20.313812,4.27874969766494,0.0945228776131223
20.31625200000001,4.278844141321427,0.0943910913727602
20.318696000000003,4.2795902112839705,0.0942721009717459
20.321144000000004,4.284572800164827,0.0941372087334757
20.323580000000007,4.299937979830104,0.0938882122867681
20.326036,4.324382497667687,0.0935085477424768
20.32847600000001,4.354414008863939,0.0930836602734997
20.330916,4.38523691599311,0.0926641471319146
20.33336,4.4141974920027245,0.0922625388008304
20.335812000000004,4.446742960624591,0.0918315481337082
20.338256,4.482081925925794,0.0913833373706346
20.340704,4.511694128241467,0.0909992664051344
20.343148,4.540887021676558,0.0906453557728293
20.34559200000001,4.573572259925285,0.0902250879041463
20.348032000000003,4.604255397427596,0.0898382204781359
20.350480000000005,4.639734132355659,0.0893987226414834
20.35292000000001,4.679077299149695,0.0889143431018779
20.355360000000005,4.719072092249788,0.0884539761853608
20.35781200000001,4.760929216469439,0.0879716809513938
20.360252000000003,4.802646571062229,0.0875004869297822
20.362696,4.83742645785599,0.0871179483204671
20.365148000000005,4.871554718343694,0.0867294222629086
20.367592,4.901958316592283,0.0863732283892606
20.370040000000003,4.9297081877884,0.0860317711410192
20.372484,4.950800130439207,0.0857622970866541
20.374924000000007,4.960810634171292,0.0856381712243208
20.377368000000004,4.9604385471189545,0.0856072425506235
20.379816000000005,4.959926690439756,0.0855859921858985
20.38226,4.961416934506975,0.0855403001972919
20.38470000000001,4.96625975376097,0.0854356582808173
20.38713600000001,4.96844884596249,0.0853445722434584
20.389584,4.975573305216622,0.0851994602641576
20.392024000000006,4.982185907791557,0.085032779073025
20.394468000000003,4.981301964060022,0.0849814548061778
20.396916000000004,4.97855568920893,0.0849441465521767
20.399352000000007,4.974086852865142,0.0849112924896229
20.40424800000001,4.956117063833503,0.084894917213351
20.40669600000001,4.94382681595915,0.0848859599675079
20.409140000000008,4.931955876965379,0.0848486386520448
20.411592,4.9254396139048,0.0847312926280572
20.41403600000001,4.917992185284442,0.08462036509985
20.416488,4.910824295917805,0.0844902579818749
20.41893200000001,4.904075715431749,0.084331696148792
20.42137600000001,4.897327134945693,0.0841725526411172
20.423820000000006,4.893931129646413,0.0839542094995866
20.426264000000003,4.894679095466826,0.0836773308421474
20.42870400000001,4.892633564607904,0.0834207860833065
20.43114,4.888865472256287,0.0831686096013069
20.43358400000001,4.8782996817325,0.0829832962083361
20.436028000000007,4.862938293782961,0.0828404091340574
20.438472000000004,4.843712473967449,0.082733214560151
20.44092400000001,4.829701560458271,0.0825533835042151
20.443368000000007,4.821324862136005,0.0822742868001699
20.44582800000001,4.816440508627374,0.0819292175370321
20.448268,4.811416385491882,0.0815935184902806
20.45070800000001,4.806532031983251,0.0812484913494114
20.453156000000007,4.803137922541841,0.0808564950287706
20.45560800000001,4.79839333866007,0.080497190810551
20.45805200000001,4.790296179591524,0.080193073251754
20.460492,4.777123883843506,0.0799483240693109
20.462936,4.762740883281988,0.0797282316939408
20.46538000000001,4.753013710519364,0.0794765733539724
20.46782800000001,4.746731660742133,0.0792197673978786
20.470276,4.74152054615154,0.0789469480213835
20.472716000000005,4.739242697867138,0.0786473826574013
20.47516,4.737616475888798,0.0783603271710853
20.477612000000008,4.740273994657011,0.0780129462517254
20.480056000000005,4.74586477973142,0.0776407022488961
20.4825,4.752386730365607,0.0772591932488389
20.484952000000007,4.763424739171825,0.0768558673510565
20.487396000000004,4.774322978351183,0.0764586923865152
20.48984800000001,4.776933275291153,0.0761661990901555
20.492288,4.77404912667107,0.0759591832327259
20.49472800000001,4.767812402864212,0.0758070108388211
20.49717200000001,4.760644513497574,0.0756599916185525
20.499616000000003,4.753988480810135,0.0755356770841283
20.502064000000004,4.750917340734948,0.0753988428803623
20.50450400000001,4.752641798085515,0.075226248123143
20.50694800000001,4.76158326248883,0.074970836160842
20.509392000000005,4.775460093944757,0.0746703720323302
20.51183200000001,4.790407860587322,0.0743548984079003
20.51427600000001,4.800560029804136,0.0740765744562613
20.51672400000001,4.807127306408696,0.0738113776894242
20.51916,4.812344108572898,0.0735786910912778
20.521612000000005,4.815279270736962,0.0733850902970225
20.524056,4.821007929580361,0.0731783273952791
20.52649600000001,4.824175409169904,0.073028000060238
20.52894000000001,4.822919378386031,0.0729422150604642
20.531388000000007,4.825248240214411,0.072846618133288
20.533832000000004,4.8278566412965125,0.0727334897715307
20.53628400000001,4.836331574991004,0.0725754903618022
20.538716000000008,4.850673041297886,0.0723708570929299
20.541160000000005,4.869949874657379,0.0721242348186556
20.543604,4.887876233576513,0.0719073322004499
20.546048,4.908596089174982,0.0716777405547289
20.54848800000001,4.927453613653896,0.0714575323078585
20.550932000000003,4.945100433319309,0.0712625909467015
20.55338800000001,4.9600935259322485,0.0710748571273993
20.55583200000001,4.971082417052355,0.0709258764458568
20.558276000000006,4.981000372985822,0.0707916807851734
20.56072800000001,4.9929204296657055,0.0706418196453737
20.56317200000001,5.006842587092007,0.0704750144708057
20.565624,5.022347536384143,0.0703181526329794
20.568064000000007,5.0404136649301385,0.0701105257105648
20.570504,5.06197213828977,0.0698512832858616
20.572952,5.080597345343206,0.0696145295146885
20.5754,5.098710695717443,0.0693555635855712
20.577844,5.120316390905318,0.0690416664784359
20.58028400000001,5.140618833481076,0.068704215360804
20.582728000000003,5.160781506429974,0.0683781119282666
20.585172,5.179361387513036,0.0680490363934082
20.58761600000001,5.198081038222958,0.067715616837532
20.59006000000001,5.214146961880406,0.0673857840181258
20.59250800000001,5.234776165538126,0.0669936196475531
20.59494000000001,5.253682807703153,0.0666026347658305
20.597396000000003,5.274079693935397,0.0661762406971438
20.59984,5.293033557928665,0.0657327555261169
20.602280000000007,5.311056256362155,0.0652931372105099
20.604724000000004,5.327076854049229,0.0648673514729489
20.60717600000001,5.33844162393741,0.0644550810405008
20.609620000000007,5.345941961959619,0.0640639687758899
20.612068000000008,5.356096027034302,0.0636751448568244
20.61450400000001,5.364807069870007,0.0632682977982447
20.616948000000008,5.371236472705577,0.0628927681509779
20.619392000000005,5.371380034048175,0.0625752227306662
20.621836,5.372362213151936,0.0622095016229328
20.62427600000001,5.374415327442335,0.0618330278539324
20.626716,5.375397506546094,0.0614684196917646
20.62917200000001,5.37782270788883,0.0611249538511928
20.631612000000004,5.379456513298649,0.060776808183119
20.634056,5.375084016469217,0.0604656050863562
20.636508000000006,5.364984756654255,0.0601747673678034
20.638952000000003,5.355676892772209,0.0598890703373781
20.641400000000004,5.344227158516887,0.0596240082581013
20.64384000000001,5.334639755381122,0.0593553536822309
20.64628400000001,5.32263094261836,0.0591212243115384
20.64872800000001,5.311273756161655,0.058900210198452
20.651176000000007,5.300707965637868,0.0586845694494944
20.653620000000004,5.290793801420138,0.0584819582356187
20.656064,5.287677335374579,0.0582496846399191
20.658500000000004,5.289496236381631,0.0579929638681763
20.660944,5.286519539962931,0.0577536269749205
20.663384000000008,5.282052599477011,0.0575467025870815
20.665828000000005,5.281589860483928,0.0573177940051994
20.66827600000001,5.286853884476371,0.05707086889697
20.67071200000001,5.288997650707517,0.0568981492064847
20.673168000000004,5.290582338431223,0.0567572567498887
20.67560800000001,5.29095632134143,0.0566336895761622
20.678048000000004,5.288257268318581,0.0565309591830459
20.680492,5.28648938085551,0.0564268104253186
20.68294,5.291099882684028,0.056319657463635
20.685388000000003,5.301716686751796,0.0561800310248816
20.687836000000004,5.316337692312398,0.0560209692806161
20.690268000000003,5.331750093805918,0.0558694245457909
20.692716000000004,5.342366897873687,0.0557327893785053
20.69515600000001,5.354846033061012,0.0555929662720522
20.69760000000001,5.369467038621615,0.0554364395880557
20.700044000000005,5.38795247604819,0.0552692839285958
20.70248000000001,5.408440014221181,0.0550916211422456
20.704936000000004,5.426785682020897,0.0549343370949223
20.707384000000005,5.439916443514281,0.0548141282532239
20.70983200000001,5.456260010567578,0.0546681524213171
20.712280000000007,5.4778184839272095,0.0544871728717161
20.714724000000004,5.495372755794006,0.0543274491048
20.71717600000001,5.508271199861912,0.0541734423567335
20.719616,5.524801758370312,0.0539708126897017
20.72205600000001,5.541891395386156,0.0537384845004388
20.72450000000001,5.562193837961914,0.0534820690927578
20.726948000000007,5.585988625351308,0.0531868662561115
20.729392000000004,5.6047082760612295,0.0529175376434083
20.73183200000001,5.617840933412481,0.052653439177084
20.734268,5.630274742629432,0.052429340949888
20.73671200000001,5.634048522554658,0.0522275203838137
20.739164,5.634889036173688,0.0520351603730442
20.741608,5.636520945725637,0.0518480328774429
20.744056,5.638572164158166,0.0516385163948372
20.746492000000003,5.636479411471001,0.0514544420911902
20.748948,5.62693733430561,0.051275248638862
20.75138800000001,5.61823387490138,0.0510513890465745
20.753832000000003,5.603663882884759,0.0508441808241748
20.756276,5.590444365308498,0.0506126646640542
20.758724,5.576293682172459,0.0503812247583096
20.761172,5.557067862356947,0.0501741536431187
20.76361200000001,5.537562503287715,0.0499814362330633
