Time,Force,Position
16.484092,2.530058176175352,0.1555102428928879
16.486496,2.536531009123426,0.1550516284161823
16.488884,2.539791036511585,0.1547648905980183
16.491264,2.536393135354435,0.1547606199882303
16.49366,2.5357887308766203,0.1546427669190412
16.496048,2.539979923824557,0.1543125222153405
16.498428,2.541609937518637,0.1541677854758076
16.500828,2.543891577518774,0.1540290907125397
16.503216,2.545102282332272,0.1539475367860005
16.505596,2.5549730164374966,0.1534828952242121
16.508,2.5667060816622778,0.1529396719441893
16.510388,2.579370312446837,0.1523621330514992
16.512764,2.592593621738837,0.151689717206943
16.515168,2.6066083269637548,0.1510096076171997
16.517556,2.6229972199874267,0.1502866514183979
16.519935999999998,2.635102372264545,0.1497906189961889
16.52234,2.6466484460342223,0.1493875615309333
16.536684,2.6652207436858064,0.1493838956365091
16.539072,2.6749044863359277,0.149071974846002
16.541452,2.6819345019335734,0.1488495799787742
16.543855999999998,2.6872419560385232,0.1486807451601775
16.54624,2.692317092717996,0.1484420283636216
16.548624,2.6986029342109665,0.1481322865573568
16.55102,2.710895077943188,0.1475610966838049
16.553408,2.7173206890630195,0.1472443094967462
16.555788,2.72495700499635,0.1468614201589257
16.558184,2.731010529063844,0.1465052679223104
16.560572,2.735713578690978,0.1462360574882379
16.562956,2.742139189810809,0.1459289308001763
16.565352,2.745911073878165,0.145698549612152
16.567736,2.753315072386018,0.1452498958425351
16.57012,2.761557688655032,0.1446908472650193
16.572516,2.770871240110684,0.1440783946759754
16.574904,2.779113856379698,0.1435079246161851
16.57728,2.787496242275572,0.1429245057521672
16.579684,2.798020498544723,0.1422209033961422
16.582072,2.804400783694181,0.1417220082789008
16.584452,2.81571643589625,0.1410294673893263
16.586848,2.823819282538404,0.1404993411682558
16.589236,2.831502820299977,0.1400211080768929
16.591616,2.8373240269419937,0.1396028622187344
16.594012,2.847661291756042,0.1390574349082995
16.5964,2.8552050598907543,0.1386084092733173
16.598779999999998,2.856882295413077,0.1383823251704591
16.601176,2.8576283653756214,0.1381838919643178
16.603564,2.8566518738454687,0.1380280890395879
16.605944,2.858049570114071,0.1378404256229034
16.608348,2.8634514678755068,0.1374970122383012
16.610732,2.864197537838051,0.1373020586450776
16.613115999999998,2.8688080396665683,0.1369745293507775
16.615512,2.873650858920564,0.1367125135497813
16.6179,2.879657161159814,0.1364920292261038
16.62028,2.890598830451677,0.1361110023931434
16.622676,2.9055447012363733,0.1355875921343927
16.625064,2.9182089320209323,0.1351699451088096
16.627448,2.9339461987385467,0.13464172469386
16.629848,2.9455394943364666,0.1342609981147671
16.632236,2.9509867180682763,0.1341156724142927
16.634616,2.9567134810538067,0.1339344929197005
16.637012,2.9636509488528358,0.1336877134570857
16.6394,2.97817751075695,0.1332164536060279
16.64178,2.986046144115757,0.1329523042513106
16.644184,2.9945664037806226,0.1326954078377816
16.646572,3.007742491244379,0.132307563206318
16.648948,3.0252948672533075,0.1318226105329969
16.651352,3.041356999195016,0.1314322392403211
16.65374,3.056627735203808,0.1310573650388816
16.656119999999998,3.0716189319588776,0.1307267682995625
16.658516,3.092197122072617,0.1302483108837625
16.660904,3.106769009947107,0.1299726427333555
16.663284,3.1234827681948736,0.1296194787386528
16.665688,3.1387535042036645,0.1292753081501543
16.668072,3.147738398719484,0.1291641109738382
16.670452,3.1567232932353035,0.1290577850238108
16.672856,3.167198431818342,0.1288627783016973
16.675244,3.176462865587882,0.128727338273368
16.677623999999998,3.1918733712235325,0.128386687189201
16.680028,3.2140815750313525,0.1278526726936121
16.682412,3.2360102395854518,0.1273510212692639
16.684791999999998,3.261943105632384,0.1267417255919104
16.687196,3.281729899813206,0.1263459530547577
16.689584,3.3051015866062814,0.1258719527549253
16.691964,3.3306151437726337,0.1253287603669167
16.694368,3.3530556650059307,0.1248878920392753
16.696752,3.3720510632538345,0.124504465446485
16.699132,3.3951904326214324,0.1239939119250486
16.701539999999998,3.4183298019890302,0.1234890239366101
16.703924,3.438675674677293,0.1230472923220516
16.706308,3.453434554006886,0.1227342033838891
16.708712,3.4703353037097555,0.1223395985380709
16.711095999999998,3.4845823263601505,0.1219994336032149
16.71348,3.4984100401299654,0.1217085359286165
16.715875999999998,3.5114463579668618,0.1214163067244665
16.71826,3.522340805430481,0.1211987550622575
16.72064,3.535888979946576,0.1209408220352126
16.723036,3.551159715955366,0.120663076975477
16.725424,3.5675013871507955,0.1203617482933754
16.727804,3.58118933129375,0.1201111861137482
16.7302,3.5979503113697597,0.1197813663926074
16.732588,3.607773823646741,0.1196235960844726
16.734968,3.616945709617663,0.1194542682512043
16.737372,3.627328300402085,0.1192416499964405
16.73976,3.636779725626728,0.1190508416847673
16.74214,3.6458590637990342,0.1188215813085505
16.744536,3.656009337157979,0.1185599863748651
16.746924,3.661084473837451,0.1184296017139805
16.749304,3.666439149770643,0.1182734009660132
16.751708,3.677939897569948,0.1179633387900581
16.754096,3.692234142048586,0.1176002042003062
16.756476,3.708530487273641,0.117189644858268
16.758879999999998,3.7228247317522793,0.1168246733913452
16.761268,3.732602918058886,0.1165286515013915
16.763648,3.745454140298548,0.1161505519134222
16.766044,3.757513966605293,0.1157742225592256
16.768432,3.765709361046063,0.1154858773064706
16.770816,3.7716703373149394,0.1151989418194047
16.773212,3.772556176904344,0.1150396106505474
16.775596,3.774512951680387,0.1148517103519684
16.77798,3.772745064217317,0.1147311222006005
16.780376,3.776052313433719,0.1144875981049359
16.78276,3.779499332276981,0.1142293548164737
16.78514,3.7810840200006863,0.1140059617742688
16.78754,3.778664506231558,0.1138744033302294
16.789924,3.77624499246243,0.1137422524253965
16.79232,3.77475664425308,0.1135938354698816
16.794724,3.776760640857366,0.1133286864161657
16.804275999999998,3.738263675255968,0.1132234142052578
16.806656,3.730024850702693,0.1131360058523393
16.809052,3.7284439546947263,0.1129235859269785
16.81144,3.72700282831362,0.1126989775068584
16.81382,3.729705673052207,0.1123745903120023
16.816219999999998,3.733339683350572,0.112033795290873
16.818608,3.733760888089022,0.1117771936884126
16.820988,3.7372551287605273,0.1114464137844677
16.823392,3.738607499058756,0.1111752292061374
16.825779999999998,3.737817998983707,0.1109592132491134
16.82816,3.735026398162241,0.1107885030582348
16.830555999999998,3.732886423646833,0.1106283647585287
16.832943999999998,3.729815283571648,0.1104834448205179
16.835324,3.731679510549073,0.1102335366698603
16.83772,3.735917925325253,0.109977570212672
16.840108,3.7401563401014335,0.1097237000196967
16.842488,3.744115215623893,0.1094984144590495
16.844884,3.7540803933856033,0.1091443555992794
16.847272,3.770563730065762,0.1086795727387418
16.849652,3.784485887492063,0.1083130075980775
16.852052,3.7999908367842,0.1079423676692319
16.85444,3.811491584583503,0.1076618436032435
16.866395999999998,3.814332303091081,0.1075410036084247
16.871164,3.815915094956917,0.1075376763140222
16.87356,3.8237837283157248,0.107382502532311
16.875948,3.833654462420949,0.1071881701436715
16.878332,3.840871469473698,0.1070216736327036
16.880727999999998,3.851673369138701,0.1068120915677372
16.883116,3.861404333617065,0.1066325571601106
16.885496,3.867550405483175,0.1064966321503582
16.8879,3.874767412535925,0.1063366258218525
16.890287999999998,3.883055354775312,0.1061533360135102
16.892668,3.8882702610816446,0.1060374690533566
16.895063999999998,3.89162283626842,0.1059488452249845
16.897451999999998,3.897908677761391,0.1058087017574918
16.899832,3.903822432202024,0.1056337744579224
16.902228,3.909875956269518,0.1054456161122664
16.904616,3.9220755522031214,0.1051305246006847
16.906996,3.9325525866440314,0.1048246545467947
16.909392,3.950246628137688,0.1043653240561787
16.91178,3.9703620792583423,0.1038368200278217
16.91416,3.991828004819357,0.103261217093855
16.916564,4.008358563327758,0.1027782180830159
16.918952,4.027030992209437,0.1022429055085613
16.921336,4.035832686985892,0.1018861594833369
16.92374,4.043423676948848,0.1015701927459292
16.926128,4.059162839524332,0.1010996977659979
16.928508,4.072527814301061,0.1006362476006185
16.930903999999998,4.084449766838814,0.1001628016051395
16.933291999999998,4.100515690496262,0.0996079734101725
16.935676,4.110575311914459,0.0991575202240406
16.938072,4.1164909622129615,0.0987904833504149
16.940456,4.1217549862054055,0.0984111407630332
16.94284,4.125575987958875,0.0980185904913753
16.945235999999998,4.125951866726951,0.0976498448185258
16.947624,4.123906335868029,0.0973509359493436
16.950004,4.124654301688443,0.0970176956252783
16.952408,4.121398066016022,0.0967559281515447
16.954795999999998,4.126010463702409,0.0963699859177401
16.957176,4.1248960984032665,0.0960650222641556
16.95958,4.11828728754407,0.0958841188008408
16.961968,4.111678476684874,0.0957031877786457
16.964348,4.106140601012317,0.0954989406090353
16.966752,4.102604826086176,0.0952621209689792
16.96914,4.104935583772425,0.0949352290167597
16.971519999999998,4.103541679219562,0.094650493739706
16.973916,4.097584494666424,0.0944805176983972
16.976304,4.089997296419207,0.0943782017178559
16.978684,4.084784285970744,0.0942784894798503
16.98108,4.076078930708644,0.0942667860734031
16.983472,4.071238007312519,0.0942023507770751
16.985851999999998,4.070541055036087,0.0940611552532239
16.988252,4.069424793879074,0.0939540911029881
16.990636,4.072545051640373,0.0938295282382846
16.993016,4.078970662760204,0.0936978977759889
16.995411999999998,4.090331640932647,0.0934917571656729
16.997799999999998,4.100621683918452,0.0933098686902007
17.00018,4.114496619516509,0.0931004747473782
17.002575999999998,4.123016879181374,0.0930007056621563
17.004964,4.13591342739141,0.0928753408609265
17.007344,4.156818378587114,0.0926291006719008
17.009743999999998,4.179306121648654,0.0923910579383429
17.012132,4.204307822135808,0.0921475139009108
17.014528,4.225677408182467,0.0919989293286473
17.016924,4.247838390162043,0.0918548455500487
17.019312,4.2745154303136506,0.0916735410035514
17.021691999999998,4.299330139345702,0.0915095817182033
17.024088,4.325495322818113,0.0913017650071444
17.026476,4.350729340730744,0.0911063457443315
17.028856,4.378244998643513,0.0908588498893061
17.031252,4.408554153235618,0.0905868229048654
17.03364,4.431506531148111,0.0904407741356753
17.03602,4.459394276113217,0.0902290033730057
17.038415999999998,4.488352956264963,0.0900054803051726
17.040803999999998,4.51666001011065,0.0897729375713723
17.043184,4.541102632090364,0.0895889386691126
17.04558,4.5636829229505205,0.0894225197286268
17.047968,4.582398781944704,0.0893024169983144
17.050364,4.603396280939025,0.0891345778381134
17.057532,4.633331452620922,0.0890299475036049
17.059928,4.638359367472151,0.0890207075605438
17.062312,4.643015195271042,0.0889784748720611
17.064695999999998,4.647950562323654,0.0889169236994804
17.067092,4.654376173443485,0.0888086522689901
17.06948,4.664014590123233,0.0886469514034856
17.07186,4.672721841243201,0.0884932739234405
17.07426,4.679986070124193,0.0883262912738454
17.076643999999998,4.687529838258906,0.088141253395917
17.079024,4.693910123408364,0.0879254648646529
17.081419999999998,4.7109997604242055,0.0875370646564835
17.083811999999998,4.722781943335099,0.0871775944578966
17.086196,4.727254571394627,0.0868680036473475
17.088592,4.726931602028401,0.086603100397231
17.090975999999998,4.729681668595232,0.0862975925860904
17.093376,4.734573605535339,0.0859584913326624
17.095772,4.742026721729303,0.0855572144121383
17.09816,4.744172383818318,0.0851788346690135
17.10054,4.748879225161193,0.084736469251216
17.102936,4.759080512064118,0.0842001526793819
17.105324,4.7681183159817895,0.0836280227519916
17.107708,4.775154019153043,0.0830814143421339
17.110104,4.788196024563548,0.0824685438795879
17.112492,4.801657338854631,0.0818356503553577
17.114872,4.810323055719964,0.0812483730437417
17.117268,4.816335045532823,0.0806736565890835
17.119656,4.824488905718958,0.0800687282015273
17.122035999999998,4.835156723330709,0.0794666077526481
17.124436,4.84475360575582,0.0788830461294651
17.126824,4.853931179300351,0.0783321209115501
17.129203999999998,4.858033616165409,0.0778450140973249
17.1316,4.865860715269581,0.0773373467449166
17.133988,4.878483411799505,0.0767916450779935
17.136368,4.897252180195538,0.076175960703603
17.138768,4.914438156725737,0.0755585998722226
17.141156,4.930041341390099,0.0749364790426416
17.143552,4.943642425308044,0.0743366608593238
17.145948,4.962970272211519,0.0736983980313608
17.148332,4.980807875047775,0.073101798762321
17.150712,4.9930112626971175,0.0725926784065272
17.153108,5.005726507025658,0.0721044017929777
17.155492,5.019372916913977,0.0716118069085634
17.157875999999998,5.026873254936185,0.0711865197476816
17.160272,5.030881248144758,0.0708214396795942
17.16266,5.035680637286249,0.0704591626151838
17.165056,5.041271422360657,0.0701016204227814
17.167452,5.045651502621566,0.0697677466235224
17.220004,4.780099389350465,0.069502809901686
17.222388,4.779447763044407,0.0694887602158653
17.224784,4.784290582298402,0.0694018682423036
17.227172,4.793417142298951,0.0692631449391972
17.229556,4.8056167382325565,0.0690938355256133
17.231952,4.815954003046603,0.0689328749668557
17.23434,4.829084764539986,0.0687606482652872
17.236736,4.848501367526339,0.0685217193665193
17.239131999999998,4.861492359392861,0.0683573541999506
17.241519999999998,4.877416617565579,0.0681713011859575
17.2439,4.8914785446187405,0.067993827411423
17.246299999999998,4.903398601298625,0.0678441300859348
17.248687999999998,4.913084239806615,0.0676708450317281
17.251068,4.929195489434435,0.0674230512722382
17.253467999999998,4.942513242382922,0.0671882144240719
17.255855999999998,4.954387973092431,0.0669343186108045
17.258236,4.958254300816275,0.066743936080671
17.260635999999998,4.966124830032952,0.0665212493452438
17.263023999999998,4.973064193689849,0.0663030368728337
17.265404,4.976418664734495,0.0660906310800986
17.267803999999998,4.981775236525556,0.0658628114887429
17.270191999999998,4.990065074622813,0.0656183790318687
17.272572,4.99220884085396,0.06542941933263
17.274976,4.993281671898468,0.0652530102383347
17.277359999999998,4.994913581450416,0.0650429363969486
17.279744,4.997616426189003,0.0648209926340244
17.282135999999998,4.998876248688614,0.0645804138491855
17.284524,4.994409308202695,0.0643670656353031
17.286904,5.000511949956301,0.0640480221135181
17.289308,5.007965066150266,0.0637031458965268
17.291695999999998,5.019562153463926,0.0633245315644855
17.294076,5.036234377457057,0.0629130590738057
17.296476,5.055560328502662,0.0625050130766318
17.298864,5.067809042122379,0.0621496908160225
17.301244,5.080849151675015,0.0618004064616008
17.303639999999998,5.094820426787428,0.0614492933168095
17.306027999999998,5.118010809699008,0.0610273447690201
17.308408,5.140409796677669,0.0606034910432841
17.310812,5.161877618096551,0.0601819851225095
17.3132,5.187070101754548,0.059753442627967
17.31558,5.213985146905241,0.0593337457268263
17.317975999999998,5.237827156122878,0.0589410262090149
17.320363999999998,5.265254057952769,0.0585460282152162
17.322744,5.297756096462132,0.0581235910624716
17.325148,5.330769991650692,0.0577287081763148
17.327536,5.367368779451506,0.0573393271608721
17.329916,5.403548258371737,0.0569755414093807
17.33232,5.4442437954640015,0.0566134742263623
17.334708,5.480376052555991,0.0563118205887944
17.337087999999998,5.511433172968508,0.0560425896397876
17.339484,5.537927013380751,0.0558279232973045
17.341872,5.555061976366968,0.0556814489371608
17.344252,5.570194838606768,0.0555469094990831
17.346652,5.593196334205375,0.0553796394209198
17.349035999999998,5.618060160923537,0.055211020222722
17.35142,5.641573513201343,0.0550665581381648
17.353816,5.660663355105733,0.0549671172706227
17.3562,5.677751096263705,0.0548785242662303
17.358584,5.696561398914374,0.0547952093443584
17.360979999999998,5.717094263057742,0.0547188285766997
17.363367999999998,5.732971299402217,0.054648912877868
17.365748,5.746706465373412,0.0545958308088317
17.368152,5.760069544292272,0.0545147925813633
17.37054,5.7672865513450216,0.0544708004242499
17.37292,5.7704993569049385,0.054445669896913
17.37532,5.7682649387330445,0.0544195316030082
17.377703999999998,5.767241225374649,0.054377865105217
17.380088,5.764494950523558,0.0543311029624409
17.382483999999998,5.762307754179908,0.0542557070791743
17.384871999999998,5.764916155262008,0.0541685231559684
17.387256,5.768875030784468,0.0540586112833417
17.389651999999998,5.778328351866981,0.0539000721021489
