Time,Force,Position
14.867968,2.502557165999911,0.1573460089432868
14.870352,2.520855611971383,0.1563147754634201
14.872748,2.541016389062412,0.155185372620155
14.875132,2.5583836694741056,0.1542089761984584
14.877528,2.566811381340354,0.1537338917892426
14.879924,2.5733767620870447,0.1533453789430971
14.882312,2.5771486461544013,0.1530808918064801
14.884692,2.5779872639155625,0.152953778953226
14.887088,2.581479608729199,0.152733220082642
14.889476,2.5852514927965555,0.1524696489829471
14.891856,2.59009431205055,0.1521504267900193
14.894252,2.5927952609312683,0.1519466116861135
14.89664,2.595216670558265,0.1517863409945947
14.899019999999998,2.6020615905586766,0.1513671859797274
14.901424,2.6103967546263083,0.1508355278047098
14.903812,2.619663084253717,0.1502569711699518
14.906192,2.630279888321485,0.1495815084018356
14.908588,2.635030159776864,0.1491813182036903
14.910976,2.6389890352993235,0.1488011518048766
14.913372,2.643227450075503,0.1483836883416706
14.915776,2.6453239944784066,0.1480765101670358
14.918164,2.646442151493288,0.1479096036650797
14.92054,2.649003330747146,0.1477354988274229
14.92294,2.6542182370534784,0.1474803475077024
14.925323999999998,2.6591536041060904,0.1472613357355762
14.927704,2.663949201531842,0.1470635319388614
14.930099999999998,2.6672545548903748,0.1469832534731709
14.932487999999998,2.670280368995187,0.1469445596055027
14.934872,2.6783813197794712,0.1466758168441864
14.937264,2.6889962279893704,0.1463517822301746
14.939652,2.69933159694555,0.1460741827862128
14.942032,2.7124604625810638,0.1456941607532752
14.944428,2.728243055269052,0.1452426490942751
14.946816,2.745887979076597,0.1447504907989349
14.949211999999998,2.760971723630284,0.1444243017362921
14.951612,2.778057568930388,0.1440184315866419
14.953995999999998,2.7957950405365497,0.1436320405094695
14.956376,2.8160464695683256,0.1431930986160796
14.958771999999998,2.8342957978536854,0.1428319386140014
14.961163999999998,2.854547226885462,0.1424098546017247
14.963544,2.876800756663655,0.1419089659039182
14.965939999999998,2.904548732001901,0.1411497105648128
14.968324,2.9325762465938685,0.140370254099151
14.970708,2.9559479333869434,0.1397367163068442
14.973112,2.9818807994338763,0.1389522013631537
14.975495999999998,3.008605061413727,0.1381599267144165
14.97788,3.0364002585802163,0.1373086296096777
14.980284,3.066197556493123,0.1363892776994058
14.982668,3.090128321793639,0.1357025376888136
14.985051999999998,3.1103344248550413,0.1351323199651956
14.987456,3.128538427170027,0.134633951764563
14.98984,3.1447403287385955,0.1342075745945203
14.992219999999998,3.157357337694912,0.1338777950419262
14.994624,3.1642475836656976,0.1337321970134414
14.997008,3.172348534449982,0.1335251630910654
14.999387999999998,3.1811011115403245,0.1333299834365268
15.001792,3.187060191951332,0.1332148400589128
15.00418,3.189713919003806,0.1331531369150106
15.016124,3.194182755347595,0.1331254572226617
15.020891999999998,3.1930192723623394,0.1330919312505337
15.023288,3.192647185310002,0.1330509320331249
15.025676,3.1937653423248835,0.1329219276098095
15.028055999999998,3.1912986067275124,0.1328710594716991
15.030456,3.187760935943502,0.1328606981487282
15.032844,3.1885070059060467,0.1326904622251032
15.035223999999998,3.190324011055229,0.1324795326854871
15.03762,3.1954935913911875,0.1321343925166003
15.040007999999998,3.202665272473563,0.1317264193964702
15.042388,3.2118390543023554,0.1312517393712334
15.044792,3.2191505050115907,0.1308246544624012
15.04718,3.223808228668352,0.1304536496882741
15.049559999999998,3.2295368875117507,0.1300416334825588
15.111688,3.0929635273460976,0.1296274161705194
15.114067999999998,3.096316102532874,0.1294920691473117
15.116464,3.100460073652568,0.1293521848872598
15.118852,3.1106103470115123,0.1290271219544428
15.121232,3.1196896851838174,0.1287390234301211
15.123627999999998,3.13049158484882,0.1284204016054013
15.126015999999998,3.1448783771260755,0.1280349960808747
15.128399999999996,3.161918896455806,0.1275943147411789
15.130795999999998,3.1816131428380103,0.1271107499278666
15.133183999999998,3.195580626234685,0.1267670128995852
15.13558,3.211410440750917,0.1263706960264236
15.137976,3.2281714208269268,0.1259582155259553
15.140364,3.245584027208994,0.1255642844876048
15.142744,3.2617859287775635,0.1252288195679393
15.145144,3.2769168951594936,0.1249287490333343
15.147528,3.2900457607950067,0.1246887039155941
15.149912,3.3089013894160506,0.1243035899053191
15.152312,3.3301312058358485,0.1239058715713697
15.1547,3.352711496696005,0.1234429798916269
15.15708,3.375431557183023,0.1229768358510351
15.159484,3.3961495169236238,0.1225675624224265
15.161868,3.4191491166643613,0.1221001761823789
15.164248,3.4392154500989034,0.1217089897358072
15.166652,3.4532754812941957,0.1214823398099239
15.16904,3.4754836851020148,0.1210406781206638
15.171416,3.50090469446975,0.1205128054061036
15.173819999999996,3.522740811225231,0.1200555545305899
15.176204,3.546858567980851,0.119530861815226
15.178584,3.5683225976839954,0.1190533909275365
15.18098,3.597655260745947,0.1183864583576765
15.183364,3.62712769343476,0.1177041638281992
15.185743999999998,3.6559484998175136,0.1170239645670765
15.18814,3.682767205453851,0.1163971032836184
15.190523999999998,3.7075838103437713,0.1158121997770353
15.19292,3.734542285606968,0.1151645284008285
15.195323999999998,3.765644731989859,0.1144129725704795
15.197708,3.791299954640941,0.113761417941165
15.200088,3.814720759120128,0.1131145884206054
15.202491999999998,3.8361394628528975,0.1125176974839326
15.204879999999998,3.854485130652613,0.1119994777246086
15.20726,3.874181272892687,0.1114232497008213
15.209656,3.883075515467759,0.1110836983620548
15.212044,3.894251398042968,0.1106722618362464
15.214424,3.9105024172976495,0.1101383685880791
15.216827999999998,3.915951536887329,0.1098408145233634
15.219215999999998,3.9155341238646177,0.1096653219572481
15.221596,3.9140457756552673,0.1095181612281725
15.223999999999998,3.908413456326224,0.1094722705183676
15.226383999999998,3.902781136997179,0.1094260301892296
15.228764,3.8963574217352175,0.1093808119045709
15.231167999999998,3.8902132457269767,0.1093096702261284
15.233555999999998,3.883789530465015,0.1092634086365152
15.235932,3.8779248937104938,0.1091661308485638
15.238336,3.878066559195224,0.1089450263980411
15.240723999999998,3.877277059120174,0.1087388113149871
15.2431,3.8735542927389295,0.1085881714436512
15.245508,3.87327664934308,0.1084068687247387
15.247891999999998,3.871928070760589,0.1082514870022018
15.250275999999998,3.871370888111018,0.1080943906525501
15.252672,3.872024410274944,0.1078981701239332
15.255055999999998,3.87318978911807,0.1077259402954557
15.257436,3.8811528661333634,0.1074293574199134
15.25984,3.885903137588741,0.1072118674053095
15.262228,3.88930293460376,0.1070476982083754
15.264608,3.896008084977312,0.1068620779874881
15.267008,3.906298127963116,0.1066319180469688
15.269396,3.9204526028148954,0.1063351918254222
15.271776,3.934746847293533,0.1060228465711748
15.27418,3.9496927180782295,0.1057227349585952
15.276564,3.964498819236065,0.1054417147481297
15.278943999999996,3.981818877819516,0.1051492003194465
15.281344,3.9992787060298274,0.1048476124651536
15.283727999999998,4.016179455732698,0.104596148586694
15.286108,4.028936234315873,0.1044381701661615
15.288516,4.044346739951524,0.1042563941017552
15.2909,4.059337936706594,0.1041100086253839
15.293283999999998,4.072466802342107,0.1039906962693271
15.29568,4.087318229470316,0.1038582932951498
15.298063999999998,4.103100822158306,0.1037139968716822
15.300444,4.119814580406072,0.1035589762564756
15.302848,4.138809978653977,0.103348187211162
15.305236,4.153940945035906,0.1031987390651767
15.307615999999998,4.172005177724032,0.102999272109576
15.362584,4.117260984583692,0.1028356392145696
15.364964,4.111628665254647,0.1027797483374115
15.367364,4.104553323686628,0.1027122427792776
15.369752,4.098688686932107,0.1026096434502207
15.372132,4.094454063871665,0.1024371155487073
15.374528,4.090219440811223,0.10226500079947
15.376912,4.097345795923225,0.1018725671006063
15.379295999999998,4.101678654355891,0.1015145620096622
15.381692,4.105731973534837,0.1011783808043797
15.38408,4.110995997527282,0.100804943684089
15.386459999999998,4.115328855959948,0.1004428093441938
15.388856,4.121943354392752,0.1000224471854406
15.391244,4.13284159357211,0.0995054077337795
15.393624,4.136802364952439,0.0991082570555249
15.396019999999998,4.140902905959628,0.0987001878476514
15.398407999999998,4.1464936910340375,0.0982308676769953
15.400788,4.145147008309417,0.0978794595570883
15.403192,4.146593822264131,0.0974950964237848
15.40558,4.153395312152037,0.096998908352475
15.407959999999996,4.161127967599724,0.0964882353707316
15.410355999999998,4.166578983047272,0.0960411521371689
15.412739999999998,4.170819293681322,0.0956299645142723
15.41512,4.178784266554484,0.0951803747633399
15.417523999999998,4.188611570547203,0.0947114565303736
15.419911999999998,4.196436773793506,0.094274052651094
15.422292,4.201887789241054,0.0938340952616482
15.424687999999998,4.200121797635854,0.093524188093916
15.427075999999998,4.200218137150209,0.0931932052978344
15.429456,4.201525181478063,0.0928293447874492
15.431864,4.2054859528583926,0.0924484751913639
15.434247999999998,4.209446724238721,0.0920661966777321
15.436628,4.211405394872633,0.0917153418005566
15.439032,4.213503835133406,0.0913558674314336
15.44142,4.217604376140595,0.0909626100145336
15.443799999999998,4.218631881214729,0.0906187295204934
15.446196,4.221102408527839,0.0902896513473358
15.448579999999998,4.223433166214089,0.0899669971223715
15.450964,4.2246929887137,0.0896682533363547
15.453359999999998,4.226324898265648,0.0894101049411707
15.455743999999996,4.230750304496931,0.0891252475489611
15.458139999999998,4.235035941101356,0.0888530016578253
15.460544,4.237179707332501,0.0886197396851816
15.462932,4.234108567257316,0.0884764982012063
15.465312,4.228755787181992,0.0883841897678323
15.467715999999998,4.227919065278701,0.0882580258759169
15.470103999999996,4.228385595987524,0.0881574452979387
15.472484,4.230993997069625,0.0880167041423248
15.47488,4.235604498898142,0.0878486050591678
15.477268,4.2419375622193565,0.0876755714116307
15.479648,4.24841039516743,0.0874944527054943
15.482051999999998,4.25795626404856,0.0872686449683018
15.484436,4.269364464049247,0.0870270361556403
15.486816,4.282215686288909,0.0868049904468381
15.489219999999998,4.298651801140824,0.0865635497720152
15.491604,4.324679110844243,0.0862277418046089
15.493984,4.3488440894281055,0.0859075259633474
15.496387999999998,4.380226075064718,0.0854845355694542
15.498772,4.412678995887968,0.0850504681820322
15.501152,4.439405153725689,0.0846752741681597
15.503555999999998,4.46520014600363,0.0843124391265282
15.505943999999998,4.490203742348654,0.0839486001156959
15.50832,4.518420144253593,0.0835320825555773
15.510723999999998,4.550920286905086,0.0830475012580028
15.513111999999998,4.587564400676273,0.0825075951463457
15.515492,4.620204312954627,0.0820198253036185
15.517887999999996,4.6547065563525365,0.0815208364072661
15.520276,4.689720656429644,0.0810471416579398
15.522656,4.721661720573698,0.0806174820322374
15.525059999999998,4.747736252105359,0.0802469284858417
15.527443999999996,4.771808682890605,0.0799041937189716
15.529824,4.79560157442213,0.0795875456519617
15.532227999999998,4.818463300393876,0.0792795894085522
15.534615999999998,4.836669198566732,0.0790051018983389
15.536996,4.851290204127334,0.0787486755604126
15.5394,4.857530719649931,0.0785529070906491
15.541783999999998,4.864981939986027,0.0783318422452115
15.544164,4.869220354762208,0.0781604269985344
15.546568,4.868383632858915,0.0780466466056016
15.548951999999998,4.867826450209344,0.0779131166583551
15.551332,4.8676885764403535,0.0777520296995224
15.553731999999998,4.866759306738444,0.0775871636001733
15.556115999999998,4.865969806663395,0.0774137246974358
15.558496,4.860756796214932,0.0773095311128315
15.560899999999998,4.852890058713994,0.0772125867922716
15.563287999999998,4.847444730840053,0.0770675820179325
15.565668,4.841487546286914,0.0769008702512478
15.568063999999998,4.837020605800996,0.0766931888335487
15.570451999999998,4.834695535688354,0.0764569291212957
15.572832,4.839447703001602,0.0761477169489502
15.575227999999996,4.842197769568432,0.0758569289713213
15.577616,4.843225274642566,0.075568822203318
15.579996,4.843321614156921,0.0752854377873668
15.582399999999998,4.843557723298137,0.074990817056252
15.584787999999998,4.843002436506435,0.0746907049142358
15.587168,4.84309877602079,0.0744023487450726
15.589567999999998,4.845057446654703,0.0741053525991961
15.591951999999996,4.84301191579578,0.0738459300552166
15.594332,4.8440394208699145,0.0735510966064071
15.596728,4.845439012996385,0.0732866451828062
15.599116,4.842554864376303,0.0730796007839466
15.601496,4.841393277248916,0.0728717069656116
15.603896,4.838881215681171,0.0726972402820499
15.606284,4.837859398180646,0.0724793129730717
15.608664,4.838420372545955,0.0722710557289854
15.61106,4.83590831097821,0.0720959781284663
15.613448,4.827110407917493,0.0719962270805087
15.615832,4.816170634483501,0.0719244154135778
15.618228,4.805230861049507,0.0718519001114879
15.620612,4.791078282055597,0.0718203086446823
15.622991999999998,4.778788034181244,0.0717795597366209
15.625388,4.764355915933615,0.0717662386785038
15.627776,4.754859164738598,0.0717105559161623
15.630172,4.749226845409555,0.0716273865361995
15.632567999999996,4.75011268499896,0.0715138529550416
15.634956,4.753000625334781,0.0713826614710023
15.637336,4.754677860857104,0.0712747070184741
15.639732,4.763292564178454,0.0711106652005222
15.64212,4.773909368246223,0.0709308161942554
15.6445,4.788018517127627,0.0706947955285061
15.646903999999996,4.8078544289945615,0.0704255844548428
15.649292,4.824757074555301,0.0701773656291129
15.651672,4.838586684182984,0.0699570352257737
15.654068,4.855070020863144,0.0697348262417901
15.656452,4.867549156050468,0.0695469118015135
15.658836,4.883613183850046,0.0693519032437524
15.661232,4.907685614635292,0.0690868944703381
15.663616,4.931758045420537,0.0688229213773656
15.666,4.951546735459228,0.0686101283854899
15.668396,4.973617065498056,0.068364772539776
15.67078,4.997177639604103,0.068082263616968
15.67318,5.021809148896789,0.0677850949809891
15.675575999999998,5.0393634207635865,0.0675530923761095
15.677963999999998,5.057057462257244,0.0673164457941255
15.680344,5.069024740765371,0.0671139210434015
15.68274,5.081131788900359,0.0669044147757536
15.685128,5.093658145915927,0.0666706932833521
15.687504,5.099386804759327,0.0664793872141976
15.689908,5.1043240676698085,0.0662847606126072
15.692296,5.1091215609534295,0.0661008077450098
15.694676,5.111265327184576,0.065919222907207
15.697079999999998,5.117273525281695,0.0657169984782522
15.699464,5.130918039312144,0.0654277422347677
15.701844,5.144842092596314,0.0651254758863966
15.704247999999998,5.164260591440538,0.0647611613624027
15.706635999999998,5.182096298418924,0.0643883635490379
15.709016,5.1992803790912525,0.0640079870146086
15.71142,5.219677265323498,0.0635997344969623
15.713807999999998,5.245568597115795,0.0631301674751562
15.716184,5.269457828161675,0.0626780630716657
15.718592,5.293067519953835,0.0622464958471247
15.72098,5.316537442119136,0.0618216717655367
15.723359999999998,5.342428773911434,0.0613574197658032
15.725764,5.3661782353304535,0.0609176936610235
15.728148,5.390998631936113,0.0604682213530635
15.730527999999998,5.41102343111602,0.0600368983331987
15.732924,5.427975194362871,0.0596290235671338
15.735312,5.4510730294758325,0.0591777089506319
15.737691999999996,5.470026893469101,0.0587585732404657
15.740087999999998,5.485256095223257,0.0583492163349878
15.742475999999998,5.501416462537191,0.0579399900378115
15.744856,5.517064973171926,0.0575129849213462
15.747255999999998,5.525077167873333,0.0571637295718769
15.749639999999998,5.5290851610819045,0.0568379455198932
15.752024,5.524805212051089,0.0565721431543107
15.754419999999998,5.519733867087355,0.0562996936457471
15.756807999999998,5.513312047683264,0.0560534594037129
15.759188,5.49953345159956,0.0558639693679065
15.761583999999996,5.4844043810755,0.0556992031188931
15.763972,5.471137641670994,0.0555315389214884
15.766352,5.456799967079851,0.055372664750958
15.768748,5.447677198795041,0.0551772439593242
15.771136,5.441208157562705,0.0549858045185813
15.773516,5.434878885957229,0.054786685338898
15.775912,5.4262679743516165,0.0546118884854318
