Time,Force,Position
18.81484,2.384256922949508,0.17073195226449
18.824384,2.4086032054148667,0.1701321287710275
18.82678,2.4147473814231084,0.170092967337754
18.831548,2.431412021984763,0.1698264008785034
18.833944,2.43885945060512,0.1697970523024765
18.836332,2.449240145531673,0.1696148576151249
18.838712,2.460738997473107,0.1692351768789186
18.841112000000003,2.469351804936589,0.1689100082779559
18.8435,2.477964612400071,0.1685773712243784
18.84588,2.494865362102941,0.167780144118051
18.848284,2.5148391477388663,0.1667901789654636
18.850672,2.534161307068734,0.165819480769681
18.853052,2.559629538264712,0.1645198944456256
18.855448000000003,2.576018431288385,0.1637601162991053
18.857836,2.594129885804753,0.1629548960764355
18.860216,2.6119618010674017,0.1621960380290078
18.862616000000003,2.626441141143274,0.1616241256122343
18.865,2.641479559726588,0.1609658476937532
18.867384,2.654935186444064,0.1603500272541882
18.869784000000003,2.671324079467736,0.1595655502246972
18.872172,2.6829173750656565,0.1590064805635306
18.874552,2.697630928424876,0.1581820822101252
18.876948,2.707316566932866,0.1575189304539455
18.879336,2.717701053575157,0.1567353634447251
18.881716,2.723010403537976,0.1562193465035375
18.88412,2.724315552007961,0.1559110745497665
18.886508,2.7293453627170594,0.1554476944145897
18.888888,2.733444007866379,0.1550272589753998
18.891284,2.7404759193218946,0.15446975659683
18.90562,2.7254412924543203,0.1544619781837562
18.908008,2.72204339129717,0.1544560322614344
18.910388,2.72628180607335,0.1540551038659655
18.912792,2.729169746409171,0.1537458908268791
18.91518,2.731917917118132,0.1534559988811698
18.91756,2.7414637859992617,0.1529039853402974
18.91996,2.754874086746365,0.1521938485818572
18.922348,2.7615792371199164,0.1518380018381893
18.924728,2.7692155530532463,0.1514435607751779
18.927124,2.777223956038914,0.1510903008917648
18.929516,2.7917505179430293,0.1504972266857858
18.931896,2.8092103461533404,0.1497777606238856
18.934292,2.8209434113781207,0.1492891596851174
18.936680000000003,2.830394836602764,0.1489227348728182
18.939064,2.840777427387186,0.1485344787526177
18.94146,2.8554437589181623,0.1479278743218561
18.943848000000003,2.8646628667173286,0.1475163319400762
18.946232,2.878817341569107,0.1468924469833529
18.948628,2.889759010860969,0.1464279257434763
18.951016000000003,2.903354407205306,0.1458978821567212
18.953396,2.917741199482563,0.1453632936033485
18.967732,2.9338486573946447,0.145057868382434
18.970128000000003,2.9400872770593725,0.1448829605813057
18.972516,2.9489796237765757,0.144637946996354
18.974912,2.9640180423598887,0.144154879323639
18.977308,2.975751107584669,0.1437451277089203
18.979696,2.986832546503392,0.1433340396818723
18.982076,2.9985656117281723,0.1429183247960149
18.984472,3.012300777699369,0.1424182574956982
18.98686,3.02389407329729,0.1420207035146473
18.989244,3.0317627066560973,0.1417381193833728
18.99164,3.0396313400149046,0.1414534839549686
18.998808,3.0497797175159804,0.1413252003342688
19.001196,3.051222739754957,0.1413210952499982
19.003576,3.0541087842329087,0.1413124607567654
19.005976,3.0675171891221424,0.1409477994834261
19.008364,3.079994428451598,0.140601846166778
19.010744000000003,3.0910286455420777,0.140270621586587
19.02986,3.1091835301709505,0.1400855192227876
19.032244,3.116585632820934,0.1399710400753167
19.03464,3.1217533172990235,0.1398664441156016
19.037028,3.130785433643086,0.1396427375204398
19.039424,3.1436819818531223,0.1393058239437147
19.04182,3.1600708748767943,0.1388120852878888
19.044208,3.1790209471543243,0.1381840768623745
19.046588,3.203605234618767,0.1373097089962618
19.048988,3.2220434502171,0.1366646477046112
19.051376,3.241552601002071,0.1359802255668878
19.053756,3.2562661543612896,0.1354513127061137
19.056152,3.27726554921348,0.1347050639589337
19.05854,3.2958435344386734,0.1340705679676268
19.06092,3.318658038582176,0.1333615007716042
19.063316,3.3431951042183763,0.1326107358601846
19.065704,3.3641472772423238,0.1319309193735401
19.068084,3.381235018400296,0.1313735031079535
19.07048,3.399533464371768,0.1307586314029608
19.072868,3.414107248104127,0.1302416055911125
19.075248,3.4236531169852564,0.1298051228422119
19.077644,3.4376224962398,0.1292091078966211
19.080032000000003,3.4473081347477903,0.1287789014046476
19.10872,3.4454476994861025,0.1285497416238117
19.1111,3.4442842165008467,0.1285176380876382
19.113508,3.4469851653815646,0.1283873274285152
19.115892,3.4507570494489213,0.1282209413069793
19.118276,3.4551805598223355,0.1280644017224367
19.120672,3.4643996676215023,0.1277911400299721
19.123056,3.477483207286641,0.1274192214678953
19.12544,3.483209970272172,0.1272832907522078
19.127836,3.488285106951644,0.1271377832674549
19.130224,3.495641883631254,0.1269121564960449
19.132608,3.507142631430557,0.1265672380932397
19.135004,3.5219959544166364,0.1261037694662448
19.137392,3.541133018149269,0.1255173458509847
19.139772,3.5582679811354865,0.1249828960145162
19.142172,3.575962022629143,0.124391631376558
19.14456,3.596589330428995,0.1237261926290124
19.14694,3.615494076736152,0.1230810852272034
19.14934,3.641615830096057,0.1222312377443312
19.151728,3.664804317149767,0.1214590304104851
19.154108,3.690926070509672,0.1206217367513159
19.156512,3.707968485697272,0.1200212797950286
19.158900000000003,3.721006699392037,0.1195369223353637
19.16128,3.7353953875271615,0.1190003927303011
19.16368,3.750715241222065,0.1184492833251257
19.166068000000003,3.76538346861091,0.1178923394475676
19.168448,3.779260300066837,0.1173518344783799
19.170844,3.794999462642321,0.1167880937955171
19.173232,3.815022365964359,0.1161033201327257
19.175616,3.8358366652193143,0.1154132510693988
19.178012000000003,3.852786532608297,0.114811453190099
19.1804,3.8661515073850263,0.1142701670150549
19.182784,3.879236942908036,0.1137599000071785
19.185180000000003,3.885105371378296,0.1134286102003491
19.187568,3.8963284757817473,0.1129600280878379
19.189948,3.908203206491257,0.1125041766338931
19.192344,3.916865131640853,0.1121309158532709
19.194732,3.932045215708895,0.1116558823019814
19.197116,3.941218997537687,0.1113134530591016
19.199512,3.951323944926257,0.1109548948805957
19.2019,3.961149353061107,0.1106269246211576
19.261632,3.990293128810088,0.1102985031277202
19.266416,3.988198480265053,0.1102802887459901
19.268796,3.991551055451829,0.1101874798053973
19.271192,4.001329241758436,0.1099363572460895
19.273576,4.015391168811598,0.1095826105642342
19.27596,4.028010073625782,0.1092223280715974
19.278356,4.036764546573994,0.1089331088284029
19.280744,4.042585753216011,0.1086981195352609
19.283124,4.051479995791082,0.1083971804014324
19.285524,4.062516108739431,0.1080455590473142
19.287908,4.074203847993838,0.1077119737629387
19.290292,4.088545314300719,0.1073472641033438
19.292688,4.104097485421099,0.1069477989925622
19.295076,4.117787325421923,0.1065784623711076
19.297472,4.132687870236245,0.1061681592124622
19.299868,4.149870055050705,0.1057006314861151
19.302256,4.165050139118748,0.1052757114501429
19.30464,4.179578596880733,0.1048398023056777
19.307036,4.191453327590243,0.1044307744764294
19.309424,4.1997431656875,0.1040621748143229
19.311804,4.210966270090952,0.1036480193607858
19.314204,4.231548251920431,0.1030435133716789
19.316592,4.251478607443851,0.1024369933004734
19.318972,4.265262891101163,0.101954320831268
19.321372,4.274903203638779,0.101556717108325
19.32376,4.28175001949706,0.101191704835302
19.326144,4.28845706572848,0.1008364408233084
19.32854,4.297166212706317,0.1004464847653234
19.330928,4.302150697445041,0.1001023498899676
19.333312,4.306995412556905,0.099772125703503
19.335712,4.309046630989434,0.099479151699626
19.3381,4.314310654981879,0.0991216276650866
19.340484,4.317432808601048,0.0988091796936605
19.342884,4.320415192593354,0.0985080652372229
19.345272,4.327541547705356,0.0981325961808359
19.347652,4.331594866884302,0.0978134810285738
19.350052,4.332575150130194,0.0975467009343878
19.35244,4.334346829309002,0.0972799434176606
19.354824,4.337701300353648,0.0970127812805659
19.35722,4.343569728823908,0.0967350675029319
19.359612,4.34799513505519,0.0964495530075721
19.361992,4.34813680053992,0.0962530509327415
19.364392,4.34706776121115,0.09608865812461
19.36678,4.352005024121631,0.0958342504191128
19.36916,4.357082056658973,0.0955680311275578
19.371564,4.369887952928262,0.0952051955939786
19.373948,4.385906654757465,0.0947840069119156
19.376328,4.398992090280474,0.0944015930699798
19.378724,4.4176645191621535,0.0939625866060053
19.381112,4.436336948043833,0.0935273590970239
19.383492,4.453007276179094,0.0931197303711475
19.385896,4.463671302075106,0.0928018494270651
19.38828,4.481412565397006,0.0923841672321206
19.39066,4.499573137599487,0.0919368440961767
19.393064000000003,4.513310199428555,0.0915811163070047
19.395452,4.528909592377178,0.0912085229674625
19.397832,4.550794826818772,0.0907328525929458
19.400228,4.5737509964470044,0.0902414674512107
19.402616,4.598709266821654,0.0897260596355163
19.405,4.623947076450025,0.0891947171458058
19.407392,4.647834411638036,0.0887072694909936
19.40978,4.666786379773435,0.0882782659089313
19.412164,4.689463010147947,0.087822043685623
19.41456,4.703060302350154,0.0874900224366456
19.416948,4.720382256791473,0.0871280423708615
19.419328,4.729556038620266,0.0868827575854513
19.421728,4.734306310075644,0.086719481562767
19.424112,4.743060783023855,0.0865048440274961
19.426492,4.750884090412289,0.0863012928312464
19.428888,4.755774131494527,0.0861305278963322
19.431276,4.765599539629377,0.085902467053265
19.433656,4.778078674816702,0.0856587513861665
19.436052,4.777334500712027,0.0855952147152028
19.438436,4.7772419529134105,0.0855438110571182
19.440816,4.77943104511493,0.0854475467558387
19.443224,4.781759906943311,0.0853421708455999
19.445608,4.779805028025137,0.0853060724381443
19.447992,4.778641545039882,0.0852723928752044
19.459936,4.759088964142406,0.0852520301956688
19.462332,4.757925481157151,0.0852181026761132
19.464728,4.753037335932783,0.0852129776415418
19.467116,4.750430830708551,0.0851643685156886
19.469496,4.751037131044234,0.0850643535994965
19.4719,4.7485703954468645,0.085005975920649
19.474284,4.74251876723724,0.0849667130615074
19.476664,4.73940040533381,0.0848959080989645
19.479068,4.732277841937547,0.0848731113319735
19.481456,4.729439019287837,0.0847835272433671
19.483836,4.737821405183711,0.0845479581647474
19.486236,4.746203791079585,0.0843140284628768
19.48862,4.751513141042404,0.0841201939946475
19.491,4.754680620631945,0.0839597680460228
19.4934,4.761060905781402,0.0837507800764605
19.495784,4.765718629438163,0.0835473357108967
19.498168,4.768234482721647,0.0833774968843577
19.500564,4.775034076751685,0.083145328479361
19.502952,4.788771138580752,0.0828406317264439
19.505336,4.804138214103898,0.0824864691362685
19.507732,4.823509491119879,0.0820872314947082
19.51012,4.842229141829801,0.0816806519910164
19.5125,4.8598778573530845,0.0812870814140777
19.514904,4.8827414791827,0.0808316944848846
19.517292,4.904022309146479,0.0803722143258604
19.519676,4.929586879856813,0.0798567740343841
19.522072,4.959947047992898,0.0793073248570208
19.52446,4.990726525009565,0.0787369805351777
19.52684,5.0237876420263685,0.0781302704208704
19.529236,5.052984327177199,0.0775642583388259
19.531624,5.078456350088915,0.0770287781128434
19.534004,5.101134876321297,0.0765090122073174
19.5364,5.125815503300096,0.0759679879243658
19.538792,5.150496130278895,0.0754244543406501
19.541172,5.171963951697778,0.0749262308971727
19.543568,5.190218967556746,0.0744675865533928
19.545956,5.206471882669296,0.0740267750726517
19.548352,5.217230352221792,0.0736670913474547
19.550748,5.221191123602122,0.0733622665344979
19.553136,5.223010024609173,0.0730870510077546
19.555516,5.219753788936754,0.072861818678827
19.557912,5.215426618077695,0.0726506679245678
19.5603,5.217245519084746,0.0723765205485697
19.562684,5.210636708225551,0.0722015636527268
19.584188,5.04671572302354,0.0720734592696372
19.586592,5.028978251417377,0.0720491224731423
19.588976,5.012171945370993,0.0720207057403613
19.59136,5.003653581563997,0.0719070131018209
19.593756,4.994995448130141,0.0718015112146949
19.596144,4.991831760256338,0.0716237377483598
19.598524,4.992812043502229,0.0714031256349988
19.600924,4.992441852307761,0.0712121794868218
19.603312000000003,4.999009128912321,0.0709663463536232
19.605692,5.0063678014498,0.070726139303258
19.608088,5.0066492365613895,0.0705491327937416
19.610476,5.01307674353909,0.0703131699851713
19.612856,5.027512653502458,0.0700127752748701
19.615252,5.040877628279187,0.0697245774469369
19.61764,5.053451207123,0.0694276379350085
19.62002,5.066816181899728,0.0691350012506865
19.622424,5.082695114102071,0.0688469492902983
19.624812,5.092288204811443,0.0686261585958152
19.627192,5.102812461080595,0.0684027771950581
19.629596,5.115338818096163,0.0681635524442725
19.631984000000003,5.128796340671509,0.0679221307134528
19.634364,5.141834554366275,0.0677085328686385
19.636768,5.157154408061178,0.0674636214727027
19.639156,5.164186319516694,0.0673010209759225
19.641536,5.176433137278542,0.0670873669617147
19.643932,5.18146294798764,0.0669410769065717
19.64632,5.187284154629656,0.066801312233419
19.6487,5.196597706085308,0.066610293726421
19.651096000000003,5.202046825674987,0.0664420730372787
19.653484,5.207635714891526,0.0662666172855677
19.655864,5.220162071907096,0.0660451332363741
19.65826,5.233759364109301,0.0658160342788237
19.660648,5.24055895813934,0.0656260837074875
19.663032,5.247358552169376,0.0654353923129584
19.665428,5.258581656572829,0.0651919865330474
19.667816,5.270084300230001,0.0649327544007729
19.670196,5.280563230528778,0.0646313647385826
19.672592,5.297328002320526,0.0642711587382264
19.67498,5.308738098179083,0.0639639339751946
19.677364,5.31921702847786,0.063661159174008
19.67976,5.330627124336416,0.0633583824464793
19.682148,5.345389795381747,0.063019556336614
19.684528,5.358010596053802,0.0627043298861742
19.686928,5.37584630303219,0.0623444209860422
19.689316,5.393170153331378,0.061969894940091
19.691708,5.418781945869954,0.0615308787199677
19.694108,5.440669076169419,0.0611029293813647
19.696492,5.4573413001625495,0.0607183608320426
19.698876,5.476155394528957,0.0603151659089352
19.701272,5.494829719268505,0.0599223993667361
19.70366,5.507637511395663,0.0595602053560022
19.70604,5.5172324979629055,0.0592297125170589
19.708436,5.534556348262095,0.0588721583210591
19.710824,5.555093004121199,0.0584878813323723
19.713204,5.5812166533389735,0.0581018607930627
19.715604,5.6121358999825,0.0577059672070385
19.717992,5.647012126290616,0.0573436767201585
19.720372,5.683610914091429,0.0569923529998114
19.722768,5.727706248198713,0.056579504043112
19.725156,5.777528345291526,0.0561587022814297
19.72754,5.827210672757479,0.0557502987483609
19.729944,5.8736801946635175,0.0553741871368711
19.732332,5.923222752502611,0.0549848944933463
19.734712,5.9683417999682895,0.0546362728048834
19.737112,6.012482460045947,0.0543418846735893
19.7395,6.05112867456355,0.0540980904712493
19.74188,6.092149076879909,0.0538719729346217
19.744284,6.139827407741575,0.05363267213129
19.746672,6.18801759528244,0.0534160937846938
19.749052,6.235136847636664,0.0532083402665405
19.751448,6.286632388536061,0.0530098128385425
19.753836,6.336405367942763,0.0528062086500749
19.756216,6.378449483617517,0.0526273855551976
19.758612,6.419282894478773,0.0524658952404395
