Time,Force,Position
17.871088,2.460203617913346,0.1645895038421793
17.873475999999997,2.5007064759769,0.1625778565560146
17.909315999999997,2.5062877817619618,0.162137836644487
17.911699999999996,2.515877080755597,0.1620288519212245
17.914096,2.5322640779214,0.1615949905102819
17.916483999999997,2.5429243121016727,0.1614206336855784
17.918867999999996,2.552141524042969,0.1612641545460151
17.921272000000002,2.5687155126638754,0.1607112520428869
17.923659999999998,2.588362537217837,0.1600101819611467
17.92604,2.6057279217716616,0.1594373609068292
17.928435999999998,2.6257470333779613,0.158776177130789
17.930824,2.6473489368500966,0.1581087192501967
17.933203999999996,2.670161545135731,0.157353127404269
17.935603999999998,2.689342038980869,0.1568294689139995
17.937992,2.7073118280125086,0.1564028556917616
17.940371999999996,2.7292858185369817,0.1557613209586857
17.942771999999998,2.750049104247956,0.1551868958018029
17.94516,2.772954260332207,0.1545002425891248
18.00488,2.832956789891385,0.1535509316066833
18.007275999999997,2.835006112466045,0.1533600476134486
18.009667999999998,2.839337075040842,0.1530461104396964
18.012048,2.84408734649622,0.152672066578804
18.014444,2.852981589071291,0.1521142771167039
18.016832,2.858151169407249,0.151697032601266
18.019216,2.8633207497432083,0.1512893410752474
18.021612,2.8679784733999694,0.1508580306064562
18.024,2.8775715641093425,0.1502288880545433
18.02638,2.8843711581393805,0.149680219315296
18.02878,2.887306320303445,0.1492866825815306
18.031168,2.88875123840029,0.1490018219706562
18.033564,2.894479897243689,0.1485156158277047
18.03596,2.903421361647004,0.1478846100236087
18.038352,2.9135735308638178,0.1471867059268097
18.102864,2.837701548391643,0.1469991880656679
18.105244,2.8415187584293733,0.1469610724514535
18.10764,2.849340169959937,0.1467699817328143
18.110024000000003,2.859163682236918,0.1464976765329702
18.112408,2.871780691193233,0.1461430081574369
18.114812,2.895898447948853,0.145296890243051
18.1172,2.920155974331332,0.1444201559576297
18.11958,2.9485574718335053,0.1433760502714973
18.121984,2.9748170989624017,0.142476522363613
18.124372,2.999493934225462,0.1415884271502423
18.126752,3.0201665679956884,0.1408706068965362
18.129148,3.0489873743784424,0.1398226396774793
18.131536,3.0787393463209747,0.1387352172823434
18.133916,3.104207577516953,0.1378356034694031
18.136312,3.1235297368468204,0.1371976506978164
18.1387,3.139359551363052,0.1367204639099112
18.141084,3.161055898491673,0.1360571151161356
18.14348,3.1821006193142374,0.1353903731503816
18.145868,3.2040765056965794,0.1347081272625387
18.148248,3.226471700959503,0.1339758626398031
18.150644,3.243000363610036,0.1334507010443722
18.153028,3.2653955588729584,0.1327606886111482
18.155408,3.2862079622700446,0.1321047842598987
18.157812,3.307020365667132,0.1314488799086492
18.1602,3.3241081068251046,0.1308965383988503
18.162584000000003,3.3366325679828037,0.130551338170622
18.16498,3.351950525819837,0.130139247650648
18.167368,3.3623331166042587,0.1298742982949716
18.169748,3.366849174776289,0.1297760930487785
18.172144,3.373087794441017,0.1296467137675677
18.174532,3.380117810038663,0.1295105157350263
18.176912,3.3842145593301143,0.1294601119667475
18.179308,3.3915241141814807,0.1292990607191112
18.181696,3.406050676085597,0.1289134091190263
18.184076,3.4205772379897126,0.1285221798041128
18.248604,3.377056149252824,0.1281504598911332
18.251,3.37510127033465,0.1281232242927582
18.253388,3.379572002536308,0.1278867798189224
18.255768,3.3883264754845195,0.127514781095121
18.258164,3.393868142872816,0.1272427692578477
18.260548,3.402203306940447,0.1269112661674783
18.262932,3.41519429880697,0.1264907288231686
18.265336,3.425391793994158,0.1261272467818169
18.267724,3.4355892891813453,0.1257678646271874
18.270104,3.451373777727203,0.125288180693555
18.272504,3.4728850292585904,0.1246827857033134
18.274892,3.49919187821573,0.1239607648693025
18.277272,3.526569662359508,0.1232024435722396
18.279668,3.549012079450673,0.1225793178978793
18.282056,3.573316827661396,0.1219049978350813
18.28444,3.5994839069916744,0.1211773109379589
18.286836,3.631797058188064,0.1202711420808548
18.289224,3.662015560839421,0.1193775894525265
18.291604,3.685436365318608,0.1186536061972552
18.294,3.702990637185405,0.1180695990088041
18.296388,3.720125600171622,0.1175345816003105
18.298768000000003,3.729671469052752,0.1171706850284521
18.301172,3.735864762747105,0.1169244802797876
18.30356,3.738845250881544,0.1167775804938207
18.30594,3.746109479762536,0.1165011922078227
18.30834,3.749928585658136,0.1162699319023338
18.310728,3.746018827821788,0.1162105438810647
18.313108,3.7471842066649126,0.116021687583807
18.315504,3.750351686254455,0.1157875343700675
18.317892,3.75193637397816,0.1155619907477497
18.320276,3.749144773156695,0.1153944135389808
18.322672,3.743978984536475,0.1152359800953918
18.32506,3.736811095169839,0.1151230910771493
18.32744,3.732296932855676,0.1149741889158022
18.329844,3.731647202407488,0.1147475144814241
18.332232,3.731137241586159,0.1145065195624533
18.337008,3.71684678882326,0.1144183006384609
18.339396,3.714567044680991,0.1142736151605722
18.34178,3.716151732404697,0.1140490663078776
18.344176,3.7132203619563695,0.1138922185816759
18.346564,3.718017855239992,0.1135776701745059
18.348948,3.723746514083391,0.113247762762785
18.351344,3.725610741060816,0.1129935834420532
18.353732,3.7253330976649655,0.1128000156744775
18.356112,3.730782217254645,0.1124967341448391
18.358512,3.73795389833702,0.1121693722226282
18.377624,3.719009513633097,0.1119412675910417
18.380024,3.719568592140538,0.1118884477915728
18.382412,3.722549080274977,0.1117506939688195
18.384792,3.727811208409552,0.1115418386823047
18.387192,3.728789595797573,0.1114496093096781
18.38958,3.732980788745511,0.1112738618113919
18.39196,3.7430385143058382,0.1109797285263301
18.39436,3.743225505760942,0.1108902244369798
18.396748,3.7436920364697657,0.1107752628655989
18.399132,3.75002509979098,0.1105427085552535
18.401536,3.760082825351307,0.1102517224581454
18.40392,3.762783774232025,0.1101441532158809
18.406304,3.76776636311288,0.1099681010071257
18.4087,3.7739596568072336,0.1097525973044132
18.411088,3.78494854792734,0.1094520072338889
18.413468,3.799662101286559,0.1090955108090887
18.415864,3.820521726511889,0.1085983708227978
18.418248,3.8415211213640794,0.1080932987636827
18.420628,3.865873091403045,0.1074977514496025
18.423028,3.891295996628649,0.1068784687741614
18.425412,3.9153684274138953,0.1063168020608126
18.427796,3.933574325586749,0.105873444972273
18.430192,3.9553651163718566,0.1053974726596615
18.43258,3.9759452023434654,0.1049627708101212
18.43496,4.001740194621409,0.1044207451666134
18.437356,4.025393316526073,0.1039401427746707
18.439744,4.0479755032441,0.1034918071033164
18.442128,4.078705862574653,0.1028806934921945
18.444524,4.106363185972151,0.1023311707871189
18.446912,4.135091444556288,0.1017709382435096
18.449292,4.164518551274727,0.101170265296645
18.451692,4.197717542060522,0.1004467686536392
18.454076,4.231707928779234,0.0997341699279298
18.456476,4.266629481057724,0.0990222162073611
18.458872,4.297826371097102,0.0983627211838755
18.46126,4.3245072029644485,0.0977509799319668
18.463644,4.347603142219542,0.097178432462053
18.466036000000003,4.368836750355078,0.0966291219013008
18.468424,4.388719884050255,0.0961308557639288
18.470808,4.4096739529320725,0.0956178786488595
18.473212,4.431698957000526,0.0950859474080779
18.475596,4.453863730695841,0.0945404470617082
18.47798,4.470441511032486,0.0940610414589389
18.480376,4.485156960249574,0.0935993429216154
18.482764,4.495076812040909,0.0932048737165164
18.485144,4.5031343327126905,0.092830957663964
18.487540000000003,4.510260687824692,0.0924684492971381
18.489928,4.510309805510805,0.0922170787236335
18.492308,4.513292189503113,0.0919251212902994
18.494704,4.512549911256306,0.0916735842903176
18.497092,4.505242252262809,0.0915540569140167
18.499472,4.498306680321649,0.0914672043954936
18.50426,4.475356198267024,0.0914297195753993
18.50664,4.463345489646391,0.0914199970418218
18.509036,4.459343184011427,0.0912946878017131
18.511424,4.459205310242436,0.0911242498035859
18.513820000000003,4.462931868339419,0.0909100429547984
18.516216,4.470011001623177,0.0906333929554212
18.518604,4.47536757341424,0.0903655319736758
18.520984,4.479001583712606,0.0901043668253799
18.52338,4.486779565130665,0.0897836226778324
18.525768,4.496280108041421,0.0894556915227687
18.528152,4.506851586138815,0.089107469953785
18.530548,4.517003755355629,0.0887881606741595
18.532936,4.5278075508785,0.0884801966017878
18.535316,4.538611346401372,0.0881728978948675
18.537712,4.55756331453677,0.0877518406532771
18.5401,4.573582016365974,0.0873644237663088
18.542484,4.588250243754819,0.0870129647205197
18.54488,4.607341981517079,0.0865761058053218
18.547268000000003,4.627644424092837,0.0861156763850267
18.549648,4.64636407480276,0.0856495460202538
18.552048,4.669879322938433,0.0851306687665046
18.554436000000003,4.69111293107397,0.0846594216348051
18.556816,4.703267201037201,0.0843165301414636
18.559212,4.714210766186932,0.0840070800608877
18.5616,4.721150129843831,0.0837495282558283
18.563984,4.719941320888201,0.0836010709250603
18.56638,4.718452972678851,0.083472411121239
18.568768,4.717616250775559,0.0833560096096805
18.571164,4.711285083312213,0.083334845497
18.57356,4.706164620662367,0.083286643091241
18.575948,4.704908589878495,0.0832004632583273
18.578328,4.70607396872162,0.0830614399504858
18.580724,4.709520987564883,0.0828802408548733
18.583112,4.71469056790084,0.0826959865768999
18.585492,4.717718277863522,0.0825472682203408
18.587888,4.728754390811871,0.0823118526098473
18.59028,4.744725870812833,0.0820265134931281
18.592664,4.757205006000158,0.0818068144531546
18.59506,4.767682040441065,0.0816109937917784
18.597448,4.7826751330540045,0.081394917839404
18.599832,4.796225203427968,0.0811654821049649
18.602228,4.81112574824229,0.0809019371738492
18.604616,4.8268176889895305,0.0806377070252564
18.607,4.836782866751241,0.0804192117419699
18.609396,4.845816878953173,0.080205352433903
18.611784,4.859786258207716,0.0799390019606485
18.614168,4.874547033395179,0.0796768541035634
18.616564,4.889307808582642,0.0794147062464784
18.618952,4.90635022377024,0.0791093354478459
18.621332,4.920319603024784,0.0788422846361743
18.623732,4.929353615226717,0.0786272488429615
18.62612,4.93596621780165,0.0784631816181604
18.628504,4.939925093324111,0.0783093685368763
18.630912,4.942301176980735,0.0781498045593245
18.63808,4.907385312275853,0.0781180405765065
18.640472000000003,4.895514373282081,0.0780659406494172
18.642852,4.881641333541891,0.0780347113958153
18.645248,4.866185501935866,0.0779949420689247
18.647636,4.85180060551648,0.0779384350759367
18.65002,4.837555478723953,0.077871524172044
18.65242,4.827594092677982,0.0777460820519222
18.654808000000003,4.8225680736846215,0.0775745977770244
18.657188,4.821686025810956,0.0773541184303552
18.659588,4.823877013870345,0.07710223145237
18.661976,4.825416375623677,0.0768381573723746
18.664356,4.82616434144409,0.0765697695054007
18.66676,4.827843472824283,0.0762970030577566
18.669148,4.832735409764391,0.0759819067652851
18.671528,4.843633648943749,0.075611992798844
18.673932,4.857093067376964,0.0751884018061129
18.676316,4.873066443235794,0.0747704596550679
18.678696,4.889179588721485,0.0743456321686801
18.6811,4.916513942752759,0.0738089501994197
18.683488,4.9493427423440846,0.0731965888182283
18.685868,4.982451081189131,0.0725709944503828
18.688264,5.0134175496609,0.071979415805306
18.690652,5.0494591548121415,0.071342788588598
18.693032,5.0813567888436895,0.0707496621176812
18.695436,5.111903948434878,0.0701920035129882
18.69782,5.144033899891904,0.0696485998652751
18.700204,5.17495314653543,0.0691330107262538
18.702596,5.20387029243254,0.0686360196572131
18.704984,5.230785337583233,0.0681606523875725
18.707368,5.252904785308174,0.067718454783557
18.709772,5.273813528219616,0.0672968898974713
18.712156,5.295932975944557,0.0668556693366449
18.71454,5.319402898109858,0.0663909392861697
18.716936,5.34687702176799,0.0659060245335913
18.719324,5.368764152067453,0.0654459265457918
18.721704000000003,5.390231973486336,0.0650144183530143
18.724108,5.409185837479604,0.0645784706768962
18.726492,5.42986226296557,0.0641483900221004
18.728872000000003,5.441599119906089,0.0637807204732452
18.731276,5.4487726968463335,0.0634728654479043
18.733664,5.454456029719358,0.0631997007283317
18.736044,5.458928657778887,0.0629449339272459
18.73844,5.45818637953208,0.062735737643611
18.740828,5.463450403524525,0.0624874334333223
18.743208000000003,5.467363953076611,0.0622649765120986
18.745604,5.46941517150914,0.0620486557397133
18.747992,5.470674994008752,0.0618275891015688
18.750372,5.476870183560975,0.0615802007908777
18.752768,5.4818546682996985,0.0613507365676571
18.755156,5.487490779344482,0.0611344083816635
18.757536,5.494337595202763,0.060899905301867
18.759944,5.503838138113519,0.060668417462491
18.762328,5.509846336210638,0.0604834039280742
18.764708,5.507706361695231,0.0603553398841268
18.767104,5.507940574978576,0.0602439041283761
18.769492,5.508035018635063,0.0601405537781244
18.771872,5.510363880463443,0.0600619411981437
18.774272,5.510690641545407,0.0599953546321888
18.77666,5.518606496732458,0.0599059874512761
18.77904,5.53145771897212,0.0597919814596098
18.781436,5.55231734419745,0.0596353821229559
18.783824000000003,5.578112336475392,0.0594563762328488
18.786204,5.609913630992582,0.0592453706280171
18.788608,5.640504220696277,0.0590548233934613
18.790996,5.673516220026968,0.0588313879098611
18.793376,5.709461485663854,0.0585983463085018
18.795772,5.748200247980075,0.0583638451019637
18.79816,5.781724103989964,0.0581686641564722
18.80054,5.818972622238966,0.0579679875747225
18.802944,5.85528997492819,0.0577684739266335
18.805332,5.895471759483387,0.0575598560599408
18.807716,5.9345826088519456,0.0573634714640179
18.810112,5.9759750982206405,0.0571434743901479
18.8125,6.021883645761369,0.0569222743947371
18.814884,6.067652423675236,0.0567084782148542
18.81728,6.111558870469547,0.0564976132752952
18.819668,6.152811590211383,0.0562839510643618
18.822048,6.191922439579941,0.0560865475812195
18.824444,6.22502698670925,0.0559209536566341
18.826832,6.256269202719001,0.0557603001261058
18.829212,6.277500914996668,0.0556499311481486
18.831608,6.295659591341279,0.0555586740436899
18.833996,6.307951735073501,0.0554893067286035
18.836376,6.316099907686029,0.0554452432532222
18.84354,6.330346930336424,0.0554136506839402
18.860268,6.348550932651412,0.0554105179197006
18.862656,6.350692803024689,0.0553955821371119
18.865052,6.3528346733979655,0.0553805965760494
18.867448,6.358840975637216,0.0553552630705922
18.869832,6.3688514793693,0.0553130340893806
18.872216,6.377930817541605,0.0552713731504856
18.874612,6.38701015571391,0.0552300610633721
18.877,6.397020659445996,0.0551871480895186
18.87938,6.404237666498745,0.0551472459472183
18.881776,6.416529810230967,0.0550830956778883
18.884164,6.431243363590186,0.0549905257592473
18.886544,6.442232254710291,0.054902538715627
18.888944,6.455502785830535,0.0547925092811479
18.891328,6.471566813630112,0.0546792900773758
18.893712,6.481904078444161,0.054579339678699
18.896108,6.490518781765512,0.0544751269940922
18.898496,6.493406722101333,0.0543831770282211
18.900876,6.492849539451761,0.0542818305699352
18.903276,6.5005802990415775,0.0541344472466616
18.90566,6.505005705272861,0.0539713567032921
18.90806,6.502633413331976,0.0538270372894704
18.910456,6.4931838839652025,0.0537139309745723
18.912844,6.486015994598565,0.0535795021275634
18.915224,6.475402982246536,0.0534353094762645
18.91762,6.46213624284203,0.0532867721625013
18.920008,6.4523618482511615,0.053103361699922
18.922388,6.443006762540873,0.0529008879157582
18.924784,6.438075187203999,0.0526637318929755
18.927172,6.436496187053903,0.0523988470319044
18.929556,6.430912985410971,0.0521498070833495
18.931952000000003,6.42411907895454,0.0519137098050768
18.93434,6.413460740632138,0.051684075255185
18.93672,6.402011006376815,0.0514479830500086
18.939116,6.38683660988238,0.0512131610543106
18.941504,6.371522443761086,0.0509834086737604
18.943884,6.354997572826291,0.0507659787834732
18.946284,6.340335033011054,0.0505461636998246
18.948668,6.323670392449399,0.0503318533469312
18.951068,6.298857579275217,0.0501535312403304
18.953464,6.27069219091426,0.0500009138205058
18.955852,6.245460068859497,0.0498390330023802
18.958236,6.227956810536681,0.0496599667664347
