Time,Force,Position
21.340884000000003,2.6463027598620505,0.1784452769294924
21.391052,2.7359740182360017,0.1775447662299378
21.39346,2.742956812005404,0.1773916168028548
21.395844,2.7539438072676408,0.1770360700123855
21.398224,2.759343809171208,0.1769232243918944
21.400628,2.7650233503284944,0.1767730289219256
21.403016,2.7770812807773697,0.1763705426865354
21.405396,2.7925843342116377,0.1758246217780739
21.407796,2.807807848392185,0.1753039449457196
21.41018,2.8308527741032963,0.1745145623240029
21.41256,2.851988146866608,0.1739336955840061
21.414956,2.878663291160347,0.1732150174634655
21.417344,2.911437285491953,0.1722725518817001
21.419724,2.94872733799559,0.171129874568766
21.42212,2.985598081618648,0.1700896422936822
21.424508,3.027264422667456,0.1688780114257817
21.426892,3.067440519649045,0.1678405681210314
21.429296,3.108687551817274,0.1667959114839001
21.43168,3.150912971373523,0.1656287058920379
21.434064,3.189460950518902,0.1645285803206185
21.43646,3.2380194333963663,0.1630251958067163
21.438848,3.2820146362735554,0.1618164933333039
21.441228,3.319723997657773,0.1609245105172572
21.443624,3.3591559205346875,0.1600134049173224
21.446012,3.3965857426651853,0.1591539197458713
21.448392,3.434806960728601,0.1582981014779039
21.450788,3.473959344351795,0.1574475857643905
21.453172,3.5227029228264928,0.1563090517231126
21.455568,3.5765216379806626,0.1549836181402244
21.457964,3.6191663664174936,0.1540090731823086
21.460352,3.65971644630929,0.1530433625403526
21.462732000000003,3.701244913589108,0.152007257624109
21.465136,3.740259423443311,0.1510399846907532
21.467524,3.779181385498896,0.1500280446834486
21.469904,3.8200129005022823,0.1489244513913266
21.4723,3.855536961400719,0.1479716868533069
21.474684,3.890129856739376,0.147059873665331
21.477064,3.922441112077897,0.1462578816119374
21.479472,3.9527502666700007,0.1455222084219488
21.481856,3.984130356448744,0.1447536873193246
21.484236,4.007921352122399,0.1442088646916235
21.486632,4.031991887049776,0.1436378869870426
21.48902,4.059135457910208,0.1429745572022076
21.4914,4.081111344292549,0.1424084890814132
21.493804,4.107278423622828,0.1416379094964448
21.496192,4.131071315154354,0.1408998809688496
21.498572,4.150208378886987,0.1402788531330461
21.500976,4.162827283701171,0.1398288799018449
21.503364,4.171861295903104,0.1394538526874187
21.505744,4.186809062545669,0.1388517542723417
21.50814,4.202176138068816,0.1382111270894018
21.510528,4.213119703218547,0.1377251868944806
21.512908,4.226065369114695,0.1371907912135643
21.515312,4.23593799907779,0.1367438067102739
21.5177,4.238081765308936,0.1364833770455387
21.52008,4.239294365980304,0.1362421252013277
21.52248,4.240134879599335,0.135971575336299
21.524864,4.240603306166028,0.13567086920016
21.527248,4.245495243106134,0.1352336924033204
21.529644,4.2500150929939045,0.134768531254205
21.532032,4.2518812158292,0.1343440222387359
21.534412,4.254026877918214,0.1338966401480351
21.589372,4.010624546097963,0.1336594128657154
21.594152,4.016164317628389,0.1336161004050623
21.59654,4.021611541360199,0.133514128486687
21.59892,4.0246373554650114,0.1335014828576621
21.601316,4.030084579196821,0.1333981158558224
21.610876,4.044794340840301,0.1333720194513051
21.615652,4.058572936924004,0.1333635884449183
21.61804,4.06737083998472,0.1333503489829114
21.620436,4.07975363565769,0.1332717629656574
21.622832,4.098282503196771,0.1330196459241803
21.625216,4.117649988497012,0.1326805298968482
21.627596,4.132501415625222,0.1324377958324445
21.63238,4.143441189059215,0.1323603251643997
21.634764,4.149959347977662,0.1322286197886998
21.637168000000003,4.15675704614983,0.1320723117824504
21.639556,4.160901017269524,0.1319618473341679
21.641936,4.168350341747751,0.1318172303936016
21.64434,4.179664098091951,0.1315929274140856
21.646724,4.197123926302262,0.1312163499118666
21.649104,4.213652588952794,0.1308599916357948
21.6515,4.232323121976604,0.1304444025296165
21.653888,4.253135525373691,0.1299747118020159
21.656268,4.278790748024773,0.1293437007697055
21.658664,4.304213653250377,0.1286797262871737
21.661052,4.330475176237143,0.1279511924018662
21.663432,4.3568764688507695,0.1272117492744549
21.665828,4.382626135158336,0.1264729388325008
21.668216,4.406932779226929,0.1257376213005244
21.670612,4.428166387362465,0.1250766760160854
21.673008,4.453636514416312,0.1243728613286244
21.675396,4.478827102216439,0.1236940218721322
21.677776,4.505600481882402,0.1230013820785545
21.68018,4.535446897481421,0.12223594606046
21.682568,4.56366329938636,0.121560314100313
21.684948,4.592299010171881,0.1208578922745274
21.687348,4.622145425770899,0.1201284466642635
21.689736,4.652550919877358,0.1193710071629765
21.692116,4.677881277304345,0.1187286118691196
21.69452,4.699347202865359,0.1181649928358332
21.696908,4.720813128426372,0.1176027115218037
21.699288,4.743489758800885,0.1170127770601727
21.701684,4.763093353242343,0.1164891293979235
21.704072,4.7801357684299415,0.1160537990205586
21.706452,4.795408400296601,0.1156977041670304
21.708856,4.807048917722765,0.1154450542759809
21.711244,4.819480831081847,0.1151908067552491
21.713624,4.828839708507874,0.1149969019387761
21.71602,4.840992082613235,0.1147666681657999
21.718408,4.858359363024929,0.1144332300433024
21.720788,4.875214786757425,0.1140875247520868
21.723184,4.89207021048992,0.1137418194608712
21.725572,4.911207274222554,0.1133429453888911
21.727952,4.933277604261381,0.1129059699592898
21.730348,4.955767243180791,0.1124449458516545
21.732736,4.976766638032983,0.1120382952853236
21.735116,4.994413457698396,0.1117091692627945
21.737516,5.008707702177034,0.1114582561661749
21.739904,5.026074982588728,0.1111537174227068
21.742284,5.045025054866258,0.1108476345963724
21.74468,5.062484883076569,0.1105905308635344
21.747068,5.079525402406299,0.1103672355937038
21.749448,5.102292684721559,0.1100706963162776
21.751852,5.124408340730761,0.1097671062467947
21.754236,5.146803535993685,0.1094432664348468
21.75662,5.175205033495859,0.1090252705863009
21.759016000000003,5.203606530998033,0.1086099954164594
21.761404,5.234010129246623,0.1081593073135289
21.763784,5.25933859081574,0.1077952470727044
21.766188,5.283316577944499,0.1074801248584268
21.768576,5.3062236298866186,0.1071895979369879
21.770952,5.330853243321435,0.106888755996462
21.773356,5.352270051196339,0.1066487419463921
21.775744,5.367401017578269,0.1065191882757496
21.778124,5.379319178400284,0.1064489265760541
21.78052,5.392448044035797,0.1063503965142913
21.782908,5.408370406350646,0.1062210182731892
21.785288,5.424572307919214,0.1060732789069702
21.787684,5.438772108741366,0.1059564590846575
21.790072,5.453391218444099,0.1058145943459359
21.792468,5.4735047737068845,0.1055706056288533
21.794868,5.490685062663474,0.1053657358829111
21.797252,5.5012074230747565,0.1052405338098371
21.799632000000003,5.514663049792234,0.1050794041232626
21.802028,5.529189611696349,0.1049006166651207
21.804416,5.538920576174713,0.1047798235474395
21.806796,5.5486515406530765,0.1046597634645282
21.809196,5.560384605877857,0.1045132756719581
21.811584,5.575190707035693,0.1043208353351642
21.813964,5.583338879648222,0.1042020491870176
21.81636,5.5865516852081365,0.1041472337689281
21.818748,5.586598907036381,0.1040951476359134
21.821132,5.58906753849162,0.1039891565093973
21.823528,5.594748975506778,0.1038280983075307
21.825916,5.598847620656098,0.1036669851794305
21.828296,5.6021548698725,0.1035071952917215
21.830692,5.6024363049840895,0.1033413382089591
21.83308,5.599644704162624,0.1032210030439661
21.83546,5.594339145915543,0.1031111300891519
21.840248000000003,5.56775844527829,0.1030606082829424
21.842644,5.551698209194452,0.1030368725602545
21.847428,5.515480987735323,0.1030005613597872
21.849808,5.494532606427113,0.1029860950720389
21.852212,5.472141202879929,0.1029639335252444
21.8546,5.450448647467046,0.1028947457527889
21.85698,5.4273130698151855,0.1028151006807078
21.859376,5.40259470029749,0.102734492637695
21.861764,5.381368675593431,0.1025821451477185
21.864144,5.367499427568982,0.102311588438547
21.86654,5.3573548417836445,0.1020041265267709
21.868924,5.344276989692113,0.1017315365440661
21.871308,5.332829151294661,0.1014061274346416
21.873704,5.324594118457123,0.1010265175049139
21.876092,5.317569790433085,0.1006211045863559
21.878472,5.310265923155327,0.1002309047172637
21.880868,5.3047318391985065,0.0997759648163431
21.883256,5.301991251921023,0.0992929014339533
21.88564,5.300181830203317,0.0987973766031445
21.888036,5.300514278858889,0.0982634273526651
21.890424,5.298704857141183,0.0977621584411167
21.892816,5.295964269863699,0.0972659478028791
21.895212,5.2921527473995775,0.0967840566478168
21.8976,5.286199354562177,0.0963373924327264
21.899984,5.283970623963891,0.0958536178285057
21.90238,5.273453951126216,0.0954936810776638
21.904764,5.261866343101903,0.0951508958993153
21.907148,5.249999195823869,0.0948254722932398
21.909544,5.237852509292116,0.0945171997618633
21.938224,4.920640613960945,0.0943826038075109
21.940608,4.908257818287975,0.0943476968531992
21.942992,4.901322246346815,0.0942724765528667
21.945392,4.895969466271492,0.094199083841615
21.94778,4.892199478062005,0.0941278643791427
21.95016,4.897089519144244,0.0939638745821758
21.952556,4.900209776905543,0.0938631383760686
21.954944,4.903050495413121,0.0937807040457014
21.957324,4.908405171346312,0.0936924742088887
21.95972,4.917065200638038,0.0935976970047022
21.962108,4.928378956982238,0.0934860930302878
21.964488,4.937690612580021,0.0934012246255583
21.966884,4.9539397359768325,0.0932261525776082
21.969268,4.972842586426119,0.0930358545387307
21.971668,4.994958242435322,0.0927907548579689
21.974064,5.018005064004302,0.0925361530640686
21.976452,5.037047684080449,0.092338965206183
21.978832,5.06009450564943,0.0920942913785883
21.981228,5.081930622404912,0.0918774544041043
21.983616,5.102044177667698,0.0916695703698923
21.985996,5.124439372930621,0.0914220643515494
21.988392,5.143109905954431,0.0912120912785738
21.99078,5.15726438080621,0.0910324486293934
21.99316,5.175562826777681,0.0907987936930223
21.99556,5.190136610510041,0.0905969355082587
21.997948,5.2068522646156765,0.0903675885172886
22.000328,5.228270968348447,0.0900480857935409
22.002724,5.25490457838755,0.0896613902616358
22.005112,5.280095166187676,0.0892662323411612
22.007508,5.308778098801439,0.0888104467226314
22.009904,5.337321261788342,0.0883627581175348
22.012292,5.370939561454717,0.0878600206721432
22.014672,5.4025557603746766,0.0873827269619626
22.017068,5.431518232242159,0.0869189711436204
22.019456,5.457267898549727,0.0865005648012104
22.021836,5.484228269670794,0.0860604592651304
22.024232,5.508395144112527,0.0856373232681139
22.02662,5.526555716315007,0.0852830813149854
22.029,5.546206532584707,0.0848898389816153
22.0314,5.566788514414185,0.0844917982455533
22.033788,5.5844372299374685,0.0841261056634046
22.036168,5.601946175833891,0.0837714965626684
22.038564,5.623179783969428,0.0833926185396175
22.040952,5.640269420985272,0.0830677528037575
22.043348,5.66029232430731,0.0827182418573529
22.045744,5.673237990203458,0.0824450835155492
22.048132000000003,5.684693412032387,0.0822131997450024
22.050516,5.694286502741761,0.0819968982520296
22.052908,5.702529119010775,0.0818104626734
22.055296,5.708769634533371,0.0816452619696957
22.057676,5.718642264496464,0.0814180164024187
22.060072,5.726512793713139,0.0812126143394465
22.06246,5.737735898116592,0.0809627491427399
22.06484,5.752823434386019,0.0806866860916102
22.067236,5.772054941775139,0.0803676589562949
22.069624,5.792217614724037,0.0800470026416349
22.07202,5.8181070506584645,0.0796894769294584
22.074416,5.848931853645505,0.0792937563991665
22.076804,5.87561268551285,0.0789403376415772
22.079184,5.9024332870070575,0.0785821178485486
22.08158,5.928043183687765,0.0782440461216877
22.083968,5.951790749248916,0.077916330083574
22.086348,5.972884587757592,0.0775969871850027
22.088752,5.991045159960073,0.0772971920920394
22.091136,6.004130595483082,0.0770437525930037
22.093516,6.023222333245341,0.0767392068820786
22.095912,6.0427333798881815,0.0764140570073519
22.0983,6.056238124291772,0.0761393745593189
22.10068,6.0698826383222215,0.0758562131379956
22.103076,6.084318548285591,0.0755784325621267
22.105464,6.094330947875543,0.0753586517518804
22.10786,6.099547750039744,0.0751688047788569
22.110264,6.099829185151334,0.0750167570937479
22.112648,6.098248289143368,0.0748743175752142
22.115028,6.096667393135399,0.0747327649871534
22.117424,6.093084396381015,0.0746071803680937
22.119812,6.087918607760795,0.074475622891353
22.122196,6.076746516901325,0.0743897169282179
22.124588,6.071580728281106,0.0742580340960009
22.126976,6.066275170034025,0.0741338254875028
22.129356,6.062971712533361,0.0739946152110857
22.131752,6.059528485405838,0.0738622674103671
22.13414,6.059018524584509,0.0737113923612014
22.13652,6.064794405256151,0.073501861180961
22.138916,6.075785192234125,0.0732444505763262
22.141304,6.084122252159627,0.0729932183177617
22.143700000000003,6.091108837644768,0.072767951230451
22.146096,6.102751250928801,0.0725231853377115
22.148484,6.119329031265446,0.0722482101183221
22.150864,6.133113314922756,0.0719849520409403
22.153264,6.147968533766705,0.0717107417164751
22.155652,6.167619350036405,0.0714118565913743
22.158032,6.18978412373172,0.0711166520884088
22.160428,6.209946796680618,0.070836563061625
22.162816,6.22824713850996,0.0705655862531206
22.1652,6.24682701959302,0.0702815230948695
22.167596,6.265267131049221,0.0700069161947985
22.169984,6.289201688065475,0.0696741804714053
22.172368,6.310202978775536,0.0693616177300111
22.174764,6.330412873552676,0.069046714671148
22.177152,6.348248580531063,0.0687211395075857
22.179532,6.367434761949809,0.0683718061096781
22.181928,6.382476972248861,0.0680564278047722
22.184316000000003,6.394446146614859,0.0677667264469468
22.186696,6.402411119488022,0.0675031889391751
22.189092,6.407442826054989,0.0672546109221891
22.19148,6.41089174075612,0.0669973493632344
22.193864,6.411035302098719,0.0667301433734067
22.19626,6.405452100455786,0.0664875135810837
22.198648,6.400008668439715,0.0662372851139727
22.201044,6.394844775677364,0.0659732496622662
22.20344,6.384885285489261,0.0657291248965977
22.205828,6.376136500114658,0.0654694982446361
22.208212,6.367527484366915,0.0652021940302995
22.210608,6.354774497499478,0.0649646688124228
22.212996,6.341462432124598,0.0647545931977195
22.21538,6.323214999697108,0.0645704597044035
22.217776,6.300544056896203,0.0644303487302226
22.220164,6.2766624092818,0.0643060813555864
22.222544,6.248916329801422,0.0641978753614237
22.22494,6.22340466849294,0.0641088104439273
22.227332,6.195751136811179,0.0640375271277119
22.229712,6.172101806622254,0.0639418871237226
22.232112,6.144308505313635,0.0638767370355154
22.2345,6.118517304751431,0.0637987645216747
22.23688,6.098033558294177,0.0637196450148915
22.239276,6.082205639635816,0.0636277825207764
22.241668,6.074758211015457,0.0635145272825431
22.244048,6.071035444634212,0.0633920145771863
22.246444,6.071177110118942,0.0632541275730535
22.248832,6.069176905230394,0.063134057771442
22.251216,6.069970197021182,0.0630069982004054
22.253612,6.0671785961997164,0.0628816481067624
22.256,6.063176290564751,0.0627717067427415
22.25838,6.068532862355814,0.0625951319392639
22.260788,6.077801087841092,0.0623592851861674
22.263172,6.095077716312038,0.0620812096496978
22.265552,6.114635984783122,0.0617785298099611
22.267948,6.135404958067704,0.0614602617050736
22.270336,6.162831859897594,0.0611222140400218
22.272716,6.189746905048287,0.0607671928078702
22.275112,6.2206661516918125,0.0603926656314554
22.2775,6.248791901656004,0.0600258245413461
22.27988,6.2799906875532505,0.0596366344894985
22.282276,6.3101185382638585,0.0592567383548122
22.284664,6.336801265989073,0.058872294619041
22.28706,6.360038870728895,0.0584844819920321
22.289464,6.374616446176993,0.0581278430379104
22.291848,6.385189820132257,0.057791429815517
22.294228,6.388965495915352,0.057479363039018
22.296628,6.397536769124199,0.0571539623817827
22.299012,6.409181078266101,0.0568130441346645
22.301396,6.4211974744603415,0.0564963177241752
22.303792,6.437497611401136,0.0561480318559169
22.30618,6.448582842035597,0.0558373824238155
22.308556,6.452962922296507,0.0555879494326106
22.31096,6.450265765131527,0.0553737743024404
22.313348,6.449011630205525,0.0551776443052939
22.315728,6.447757495279521,0.0549816340612971
22.318124,6.442778698114404,0.0547904910061914
22.320512,6.439662232068844,0.054597866523668
22.322892,6.436266226769563,0.0544192051992299
22.325296,6.4336616174032,0.0542458184935142
22.327684,6.4372030799029485,0.0540429313913743
22.330064,6.445679909455309,0.0538245318364835
22.33246,6.457369544567586,0.0535861934191069
22.334848,6.4694312667322,0.0533726504222686
22.337232,6.485357420762787,0.0531498784442182
22.339628,6.508221042592402,0.0529051843496185
22.342016,6.537742592967327,0.0526500926690365
22.344396,6.563539481103137,0.0523995542556908
22.346792,6.582259131813059,0.0521783952755034
22.34918,6.601398091403562,0.0519379854735094
22.35156,6.618255410993926,0.0517192216775188
22.353956,6.632831090584156,0.0515198271552764
22.356344,6.652481906853855,0.051298961439946
22.358728,6.677068090176167,0.0510631736987216
22.361124,6.700211251259503,0.0508111510730243
22.363512,6.7232146427159805,0.0505661776417766
22.365908,6.745938494918735,0.0503335194708663
22.368304,6.765309771934714,0.0501278984083743
22.370692,6.783749883390916,0.0499240104826645
22.373072,6.803260930033756,0.0497145139669718
22.375472,6.8174173007434025,0.0495398082720457
22.37786,6.825427599586939,0.0493920442137488
22.38024,6.830736949549758,0.0492820290633506
22.382636,6.8380484002589945,0.0491658634494371
