Time,Force,Position
21.182748,3.3035339571577707,0.1574393102107599
21.185152,3.363629034515566,0.1568713883870445
21.187536,3.415113200267748,0.1562913386894055
21.189916,3.464225074079044,0.1555330697563043
21.19232,3.5071002240834823,0.154744132086175
21.194708,3.544297728788503,0.1538640928281877
21.264004,3.552168258005179,0.1533640687247221
21.266392,3.5544026761770726,0.1533480554829141
21.268772,3.556916633602688,0.1533025648598122
21.271168,3.5637143317748565,0.1531007104120196
21.273552,3.5765183321862755,0.1527122445393657
21.275932,3.592115829277029,0.1522512300106699
21.278332,3.614790563793673,0.151555448489604
21.280716,3.63969971648221,0.1508310525655437
21.283096,3.664329329917027,0.150129406089766
21.2855,3.6938943104044566,0.1492572501064823
21.287884,3.724110917197943,0.1483903987437757
21.290264,3.752045883991293,0.1476242132538958
21.292668,3.779980850784643,0.146870523266576
21.295056,3.8037718464582975,0.1462614058619215
21.297436,3.8290530861991727,0.1455711916543486
21.299832,3.8491194196337153,0.1450716016003838
21.30222,3.870396457881756,0.1445241527321022
21.304604,3.892884200943296,0.1439158043075877
21.307,3.91229890807178,0.1434205713027003
21.309388,3.928780348894069,0.1430156430258737
21.311768,3.9494983086346696,0.1425342752235571
21.314164,3.963930426882299,0.1422788260528147
21.3261,4.012156461104192,0.1420230511745231
21.328504,4.024167169724824,0.1418939650437606
21.330888,4.040321849465149,0.1416453535666635
21.333268,4.055545363645697,0.1414198024942721
21.335668,4.06853445965435,0.1412026563725472
21.338052,4.0839449652900015,0.1408939737941838
21.340432,4.099914549433093,0.1405409393354421
21.342832,4.11937647838982,0.1400622455175037
21.345216,4.135625601786632,0.139681568522585
21.347596,4.152433803690886,0.1392444652187566
21.350008000000003,4.165517343356025,0.1388891094186751
21.352396,4.180742753394442,0.1384703679360083
21.354776,4.197970264179276,0.1380026486844321
21.35718,4.2153375445909695,0.1375189799852428
21.359568,4.228328536457492,0.1371110018365737
21.361948,4.240528132391097,0.1367072957543913
21.364352,4.24686119571231,0.136453026521226
21.36674,4.258828474220437,0.1360030244120944
21.36912,4.270144126422506,0.1355417738151242
21.3954,4.229089773282991,0.1353506237150469
21.39778,4.230068160671012,0.1352640722075031
21.402572,4.223412127983572,0.1352152085580774
21.404956,4.2209453923862,0.1351783610897459
21.407356,4.223414023841442,0.135026126149135
21.40974,4.231237331229875,0.1347258633164841
21.41212,4.240271343431807,0.1343802294690758
21.414512,4.249025816380017,0.1340624292670898
21.4169,4.260713555634425,0.1336781685741517
21.419296,4.275194791568167,0.1332344146929592
21.421696,4.286882530822574,0.1328466176386598
21.424084,4.299780974890479,0.1324118727982742
21.426464,4.310537548585107,0.1320358589430526
21.428868,4.328371359705625,0.1314825744439623
21.431252,4.339035385601636,0.1310523780594609
21.433632,4.347557541124371,0.1306820424799253
21.436036,4.356359235900826,0.1302844826574325
21.43842,4.361016959557587,0.1299990683157748
21.4408,4.363160725788734,0.1297458896396636
21.443204,4.363954017579521,0.1295477533906297
21.445588,4.361953812690973,0.1294051155080546
21.447972,4.360325694854763,0.1292932749756375
21.450372,4.361071764817307,0.1291632908591005
21.459932,4.345804820524254,0.1290321626398247
21.462308,4.341615523434187,0.1290152723315399
21.464712,4.337426226344119,0.128997921082449
21.4671,4.33458740369441,0.1289285503702628
21.469476,4.332167889925283,0.1288236491603267
21.471872,4.333612808022127,0.1286414951481129
21.47426,4.340132862798444,0.1283431918727186
21.47664,4.343719651268566,0.1281091927059319
21.479032,4.356897634590192,0.1276972498014808
21.48142,4.374871215337571,0.1271973883178453
21.483804,4.393775961644727,0.1266813935901062
21.4862,4.414682808698299,0.1261180866180733
21.488588,4.435030577244432,0.1255984522018301
21.490968,4.459522316910258,0.1249854490618511
21.493372,4.4848054525090015,0.1243667389401261
21.495756,4.5133013936676605,0.12367403255081
21.498136,4.540354312587345,0.1229793964231381
21.50054,4.56619652669353,0.1223271449331482
21.502928,4.592038740799716,0.1216809806915271
21.505308,4.619743286025458,0.1209976495148435
21.507712,4.648378996810977,0.1203142782618731
21.5101,4.6740814412903005,0.1196919892995635
21.51248,4.697781785023208,0.1191114602775426
21.514876,4.720550963196339,0.1185505584321238
21.517264,4.744763163608444,0.1179956475835049
21.519644,4.765110932154577,0.1175153839792873
21.522048,4.780802872901817,0.1171103222101605
21.524432,4.795843187342999,0.11670083605668
21.526816,4.801292306932678,0.1164552742622034
21.529212,4.802085598723465,0.1162790915471905
21.5316,4.803810056074032,0.1160898578607523
21.53398,4.809026858238234,0.1158096491165612
21.536384,4.816525300402572,0.115471399494731
21.538768,4.819088375514299,0.1152214288797068
21.541148,4.822862155439525,0.1149382332749914
21.543544,4.823702669058556,0.1147063768152382
21.545932,4.823472247490948,0.1144967208213077
21.548312,4.822310660363562,0.1142996204420148
21.550708,4.81807603730312,0.1141621829619328
21.553096,4.814680032003839,0.1139616842177764
21.555476,4.8043465589055305,0.1138828884718072
21.55788,4.795735647299917,0.1137885553003367
21.560268,4.789406375694441,0.1136366546493366
21.562648,4.781866399275467,0.1135182408470128
21.565044,4.77767899804327,0.1133206266865113
21.567432,4.775493697557487,0.1130877437049494
21.569812,4.774891188937541,0.1128498676725831
21.572208,4.771867270690599,0.1126778252692754
21.574596,4.772148705802188,0.1124852551391478
21.576992,4.775083867966252,0.112264536496481
21.579388,4.776948094943678,0.1120676436814159
21.584156,4.765776004084207,0.1120479018708015
21.586552,4.763309268486835,0.1120042885767145
21.588936,4.761633928822383,0.1119585991670835
21.59132,4.761820920277486,0.1118885119766239
21.593724,4.765313265091122,0.1118002982565524
21.596108,4.770667941024314,0.1116875845656863
21.598492,4.781237523263839,0.1114736294490175
21.600888,4.791620114048261,0.1113306896420799
21.603276,4.810802503751268,0.1110496700776233
21.605656,4.8285418712153,0.1107634603163842
21.60806,4.844790994612112,0.1105316559466343
21.610448,4.862902449128481,0.1102760959441197
21.612824,4.875519458084797,0.1101430813214781
21.615228,4.88892786297403,0.1100110978231035
21.617616,4.903267433423044,0.1098682376692372
21.619996,4.922542370924668,0.1096490481293464
21.622392,4.943028013239792,0.1093984991423568
21.62478,4.9616513244353575,0.109170794509025
21.62716,4.980414405257784,0.1089335863573117
21.629556,5.005603097200041,0.1085681691314724
21.631944,5.033352968396157,0.1081336042446245
21.634324,5.060963069965412,0.1077152294016732
21.63672,5.087362466721168,0.1073315396977771
21.639108,5.110968366797591,0.1069831826137842
21.641504,5.134202179821675,0.1066104429759842
21.6439,5.157575762472618,0.1062309668771519
21.646288,5.176665604377009,0.1059354595625208
21.648668,5.193521028109504,0.1056317870493508
21.651072,5.202507818483193,0.1054430974750861
21.653456,5.2129376310958575,0.1052626553701953
21.65584,5.223646982962243,0.1050632067161422
21.658236,5.23356493889571,0.1048655065772951
21.660624,5.243902203709758,0.1046378818088072
21.663004,5.25116643259075,0.1044612461950867
21.6654,5.257639265538824,0.1042861735951497
21.667784,5.262249767367342,0.1041335979567685
21.670164,5.26713980844958,0.1039633200536307
21.672568,5.274031950278237,0.1037636982699458
21.674952,5.280784322480033,0.1035735800046425
21.677332,5.28511528505483,0.1034423588152787
21.679736,5.289306478002767,0.1033220622173063
21.68212,5.292054648711727,0.1031944103210588
21.6845,5.293359797181712,0.1030585800452944
21.686904,5.293594010465058,0.1029407322814684
21.689292,5.291826123001988,0.102851146447985
21.691672,5.288195904419361,0.1027805100659876
21.694076000000003,5.283914059530676,0.1027009483602624
21.696464,5.28056338020177,0.1026114462422084
21.698844,5.2804255064327785,0.1024646369611705
21.70124,5.282289733410204,0.1022905536568156
21.703628,5.286156061134046,0.1020893379764941
21.706008,5.291093324044528,0.1018704302502485
21.708404,5.295890817328149,0.1016598525426899
21.710792,5.30110761949235,0.10142100535601
21.713172,5.305393256096775,0.1011914147447246
21.715576,5.3079563312085005,0.1009718821477904
21.71796,5.313732211880144,0.1007007501235497
21.72034,5.318576926992008,0.100439576017918
21.722744,5.322770015797814,0.1001691801642682
21.725132,5.325659851991506,0.0998810623973329
21.727512,5.325616421879,0.0996295887583655
21.729908,5.325293452512775,0.0993962792454453
21.732296,5.325901648706329,0.0991539887772256
21.734676,5.330653816019574,0.0988500861440411
21.737072,5.338479019265877,0.098503622490835
21.73946,5.347514927325678,0.0981308718611471
21.741856,5.360415267251454,0.0977156235099935
21.744256,5.376388643110283,0.0972593482051278
21.746644,5.392362018969114,0.0968045939331883
21.749024,5.403819336655912,0.0963849295459732
21.75142,5.412622927290236,0.095983515825904
21.753808,5.419564186805004,0.0955993675337085
21.756188,5.430928956693186,0.0951422849303254
21.758592,5.442293726581367,0.0946845005959913
21.76098,5.4596647987088,0.094159121276349
21.76336,5.4767563315825125,0.093649583467876
21.765756,5.483418051843558,0.0932865324864263
21.768144,5.491290476918104,0.0928999794738133
21.770524,5.501956398671985,0.0924921143507395
21.772924,5.513413716358784,0.0920857560144763
21.775312,5.525150573299302,0.0916616065530719
21.777692,5.5370271998666825,0.0912297351192925
21.780096,5.546901725687644,0.0908206602657864
21.78248,5.552632280388914,0.0904680993452232
21.784864,5.556360734343765,0.0901410081974905
21.787256,5.5590182531119785,0.0898298364887076
21.789644000000003,5.559022044827717,0.0895328314336899
21.792024,5.558886066916595,0.0892466085126034
21.794428,5.559681254565251,0.08895423777936
21.796816,5.559265737400409,0.0886834184851907
21.799196,5.556149271354849,0.0884760464563924
21.801592,5.551402791615209,0.0883177521390982
21.80398,5.542372571129016,0.0882218109976304
21.806364,5.535996077695296,0.0881132029432424
21.80876,5.521611181275911,0.0880930032607144
21.811144,5.507366054483385,0.0880644115540679
21.813528,5.499406769183831,0.0879518213102697
21.815924000000003,5.490236779070777,0.0878629379489419
21.818312,5.479995853771085,0.0877890945600923
21.825472,5.443963727909189,0.08773989003446
21.827852,5.433535811154393,0.0877262532268493
21.830248,5.425901391078932,0.0876922214362505
21.832636,5.417196035816833,0.0876732371546108
21.835016,5.411004637980348,0.0876506769724488
21.8422,5.391591826709733,0.0876310832489546
21.844604,5.388985321485502,0.0875897149601432
21.846988,5.392013031448184,0.0874567352218839
21.849372,5.400814726224639,0.0872246157362399
21.851768,5.409476651374233,0.0870001320693936
21.854156,5.414274144657855,0.0868101586709546
21.856540000000003,5.42307583943431,0.086576820451985
21.858936,5.43509033977068,0.0863005197194216
21.86132,5.449106940853468,0.0860057728911871
21.863704,5.463123541936255,0.0857116015226004
21.8661,5.472484315220149,0.0854473987422956
21.868484,5.483195562944403,0.0851530675011623
21.870864,5.498470090668932,0.0847858843217442
21.873272,5.5205423165656295,0.0843607303561926
21.875656,5.542894081716048,0.083925505662102
21.87804,5.5655253861201865,0.0834766787307647
21.880436,5.592021122390299,0.082999729365531
21.882824,5.616934066794575,0.0825211494571326
21.885204,5.639844910452434,0.0820654654342099
21.8876,5.665549250789628,0.0815927336109432
21.889988,5.691253591126822,0.08112096951668
21.892372,5.716026765904237,0.0806616811806273
21.894768,5.740520401427932,0.0802248319376495
21.897156000000003,5.76259262732463,0.0798359138306756
21.899552,5.787737889154382,0.079417649181195
21.901948,5.817818518036748,0.0789601437613341
21.904332,5.847759377292253,0.0785139005306636
21.906716,5.876070222853679,0.0781154819378333
21.909112,5.902239198041827,0.077745613995999
21.911496,5.928547942856835,0.077369377755794
21.91388,5.9595125154707365,0.0769675072013915
21.916276,5.989126613644278,0.0765957651078176
21.918664,6.015388136631043,0.0762727252579364
21.921044,6.036854062192058,0.0759833601332937
21.923448,6.054687873312575,0.0757539218627159
21.925836,6.070659353313536,0.0755344801355109
21.928216,6.08448896294122,0.0753409682565111
21.93062,6.097107867755406,0.0751667310143585
21.933008,6.1106579381293695,0.0749889412482505
21.935388,6.12648964850347,0.0747831712666326
21.937792,6.1420418196238495,0.0745921315688814
21.94018,6.153589789251396,0.0744329348446483
21.94256,6.162995888505665,0.0742976018264297
21.944956,6.172401987759935,0.0741630928133677
21.947344,6.180737151827566,0.0740410378240311
21.949728,6.184276718469445,0.0739465064691794
21.952124,6.184743249178269,0.0738781163968305
21.954508,6.185629088767673,0.0737883392168372
21.956892,6.186375158730218,0.0737057961857501
21.959288,6.18791262462568,0.0736267940087076
21.961676,6.19038125608092,0.0735444511520273
21.964056,6.191778952349522,0.0734728960127359
21.966452,6.194107814177903,0.0733976504505015
21.96884,6.197367841566062,0.0733185704878102
21.971224,6.196763437088247,0.0732612944620061
21.97362,6.199883694849546,0.0731888001330867
21.976008,6.199558829625452,0.0731171278883489
21.978388,6.202307000334412,0.0730197417160384
21.980788,6.204124005483595,0.072926409291145
21.983172,6.199794938766668,0.0728843169511889
21.985552,6.19588518093032,0.0728206940687844
21.987948,6.1961193942136665,0.0727207684195469
21.990332,6.195701981190955,0.072610100333326
21.992712,6.194353402608465,0.0725032776731905
21.995124,6.19114249290642,0.0724037074938296
21.997512,6.192866950256985,0.0722721821014358
21.999892000000003,6.1979439827943255,0.072101429082618
22.002292,6.200087749025473,0.0719483852278028
22.00468,6.203442220070119,0.0717780070168626
22.00706,6.208007395928261,0.0715912244618631
22.00946,6.212991880666985,0.0713851281849976
22.011848,6.222399875779123,0.0711320762222077
22.014228,6.231435783838925,0.0708555459571429
22.016624,6.23860936077917,0.0705848742644418
22.019012,6.255421354399161,0.070222676257525
22.021396,6.268368916153179,0.0698820875079769
22.023796,6.285041140146312,0.0695286866818008
22.026184,6.297057536340551,0.0691912372542286
22.028564,6.310005098094569,0.0688516876237217
22.03096,6.3268170917145605,0.0684919683869512
22.033348,6.3448397901480496,0.0681176002612053
22.035744,6.361651783768042,0.0677629187852683
22.038148,6.381257274067368,0.0674011906091032
22.040532,6.398209037314219,0.0670402645259351
22.042912,6.418233836494125,0.0666587858071502
22.045308,6.434254434181199,0.0663045153373086
22.047696,6.449204096681633,0.0659615597096173
22.050076,6.46322259362229,0.0656189732591253
22.052472,6.474447593883611,0.0652847917575274
22.05486,6.481808162278959,0.0649689052534466
22.05724,6.484884989927752,0.0646911238188942
22.059636,6.484888781643491,0.0644361131250164
22.062024,6.483681868545732,0.0641969798702315
22.064404,6.487410322500583,0.063932977101669
22.066808,6.4877862012686585,0.0637050987180552
22.069196,6.488441619290456,0.0634634663911209
22.071576,6.488026102125614,0.0632312011882541
22.07398,6.491195477573025,0.0629962941938254
22.076364,6.49292183078146,0.0627461873288922
22.078744,6.4927858528703375,0.0625004627611637
22.081148,6.490228465332218,0.0622855593725118
22.083536,6.486879681861182,0.062066460412226
22.085916,6.4795266968973095,0.0618686437815092
22.08832,6.476969309359189,0.0616539428233396
22.090708,6.470407720328237,0.0614602188440126
22.093088,6.465988001670563,0.06124947584871
22.095488,6.4624994485726655,0.0610371707934369
22.097876,6.466739759206715,0.0607980029557716
22.100256,6.473773566520099,0.0605535160491419
22.102652,6.480248295326041,0.0603337591082496
22.10504,6.489935829691901,0.0600890103307349
22.107424,6.4994835944309,0.0598512574956109
22.10982,6.506889488796622,0.0596289877103458
22.112204,6.512153512789067,0.0594249876597392
22.114588,6.514484270475318,0.0592324853213148
22.11698,6.517466654467626,0.0590513862557111
22.119368,6.521519973646571,0.058862657109891
22.121752,6.525852832079237,0.0586618501895873
22.124148,6.527624511258047,0.0584957216716683
22.126536,6.532469226369912,0.0583125964206385
22.12892,6.540666516668551,0.0580998622147938
22.131316,6.547932641407412,0.0578887337904688
22.133704,6.558691110959909,0.0576414234861817
22.136084,6.565585148646434,0.0574066841857221
22.138484,6.570756624840263,0.0571663465456163
22.140872,6.573646461033952,0.0569483655378591
22.143252,6.57281163498853,0.0567350805402984
22.145656,6.565318880397799,0.0565377064723706
22.148044,6.560619622486403,0.0563381230777002
22.150424,6.562625514948557,0.0560815592573691
22.152828,6.563560472224073,0.0558331236293743
22.155212,6.563052407260615,0.0555672738025444
22.157596,6.567479709349766,0.0552834570429103
22.159992000000003,6.567111414013168,0.0550098811466607
22.16238,6.572889190542679,0.0547064073876557
22.16476,6.578946506325912,0.0543907481970626
22.167164,6.582210325429809,0.0540777465061627
22.169552,6.585334374906847,0.0537724181114171
22.171932,6.592742165130439,0.0534379319687327
22.174328,6.5970769194209735,0.0531193853672391
22.176716,6.596196767405178,0.0528296290468883
22.179096,6.5961080113223,0.0525452115627305
22.181492,6.593597845612423,0.0522875402677644
22.18388,6.592670471768384,0.0520405153657389
22.18626,6.59919242240257,0.0517888491345742
22.188664,6.607996013036893,0.0515175561608947
22.191052,6.620384496283471,0.0512499448131731
22.193432,6.633564375462966,0.0509874525291841
22.195832,6.638084225350736,0.0507422206402387
22.19822,6.635387068185755,0.0505324922114441
22.2006,6.632689911020775,0.0503228390809349
