Time,Force,Position
21.300988,2.955114823851064,0.1697884402561816
21.36312,3.020564402523564,0.1691985449855498
21.365504,3.0246611518150157,0.1691035993722069
21.367904,3.028338592225885,0.1690584295088344
21.370292,3.0363923211819266,0.1688719836375674
21.372672,3.0441192890560043,0.1688122289232781
21.375068,3.057665567714229,0.1686002626883231
21.377456,3.0734462645443483,0.1683632620673459
21.379836,3.091089292494024,0.1680510807757939
21.382232,3.1150181619366704,0.16743035136963
21.38462,3.1412286713794546,0.1666875668068144
21.387,3.1725143175017108,0.1657277654892796
21.3894,3.204870898810605,0.1647360203847592
21.391784,3.2365758538134424,0.1637778994972298
21.394164,3.2677689521370814,0.1628275261605483
21.396568,3.296820180087443,0.1619836428286701
21.398952,3.330806775090417,0.1609738997950659
21.401336,3.363442895653032,0.160050263362376
21.403732,3.394309232894708,0.1592877490025974
21.40612,3.429040002002357,0.1584069248895036
21.4085,3.46763520297598,0.1574115920585567
21.410904,3.506370173576462,0.1564169852934743
21.413292,3.54259118675133,0.1555281439986721
21.415672,3.58374756697881,0.1544601485614715
21.418072,3.626533960900369,0.1533068179084047
21.42046,3.6716492166503096,0.1519672460301041
21.42284,3.712667723108799,0.1507307626237054
21.425244,3.7462369050890616,0.1496914700394241
21.427632,3.78287912300238,0.1485605308695322
21.430012,3.817659009796141,0.1475072389507417
21.432408,3.847643299164152,0.1465926461737625
21.434792,3.8728319911064095,0.1458349225033456
21.437172,3.897601374168087,0.1451339253808594
21.439576,3.920740743535685,0.1445386391758388
21.44196,3.944019882530142,0.1439439288504494
21.44434,3.965855999285624,0.1433477279566655
21.446736,3.980894417868938,0.1429549097492302
21.44912,4.001147742758583,0.1423992869866751
21.451516,4.021028980595892,0.1418186557802323
21.45392,4.034531829141612,0.1413868204480102
21.456308,4.042727223582383,0.141066648887001
21.458688,4.049479595784177,0.1407527247693611
21.461084,4.049014960933223,0.1406609269721604
21.463472,4.048969634962849,0.1405296254190348
21.465852,4.04571150343256,0.1405032287708673
21.468248,4.04231360227541,0.1404893689259233
21.470636,4.039707097051178,0.140467521975512
21.473016,4.046040160372392,0.1402034531855444
21.475416,4.049579727014272,0.1400051762681889
21.477804,4.053398832909871,0.1397829022581543
21.480184,4.062153305858082,0.1394319680576284
21.48258,4.071047548433154,0.1390658648378694
21.484968,4.079709473582749,0.1386593450810733
21.487348,4.090420721307003,0.1381349087199677
21.489744,4.096615910859226,0.1376975632288905
21.492132,4.104673431531007,0.137218507235587
21.494528,4.115943757762701,0.1366396390460876
21.496924,4.1184142850758105,0.1362803718009308
21.499308,4.119953646829143,0.135942395239333
21.501688,4.124146735634949,0.1355555316886827
21.504092,4.128991450746814,0.1351719057988768
21.50648,4.133416856978097,0.1348275057195904
21.508856,4.145199039888992,0.1342632383061628
21.51126,4.15297702130705,0.1338071203534334
21.513648,4.162757103471527,0.1332985712978083
21.516028,4.169464149702947,0.1328751698824395
21.51842,4.1753798000014495,0.132460258666803
21.5471,4.1042542972689136,0.1323114020737998
21.549484,4.102159648723879,0.1323043806343151
21.551864,4.101927331298402,0.1322597163401061
21.570988,4.096714320849939,0.1322065907522973
21.573368,4.105606667567142,0.1320584218216453
21.575772,4.116221575777041,0.1318860198333813
21.57816,4.126045088054022,0.1317216440125519
21.58054,4.13773093145056,0.1315204997809175
21.582944,4.157704717086485,0.1310929087811485
21.585332,4.178377350856711,0.1306013302717639
21.587712,4.199329523880658,0.1300943180108709
21.590116,4.214694703545935,0.1296969651823371
21.592504,4.228988948024574,0.129336189684791
21.59488,4.244214358062989,0.1289560381343507
21.597276,4.258089293661048,0.1286363949132952
21.599664,4.272895394818884,0.128303133179342
21.60204,4.284907999297386,0.1280218216288115
21.604448,4.299574330828362,0.1277022795878496
21.606836,4.315451367172836,0.1273464965586542
21.609216,4.334541209077226,0.1269024168748491
21.611612,4.349254762436445,0.1265249281283655
21.614,4.367041351728719,0.1260760419021786
21.61638,4.387109581021131,0.1255638722767082
21.618776,4.411089464007759,0.1249051338853334
21.62116,4.430693058449215,0.1243222943507809
21.62354,4.451507357704171,0.1237078041181338
21.625944,4.472601196212848,0.1230758544311504
21.628332,4.493695034721524,0.1224479607686029
21.630712,4.5097137365507285,0.1219344182331889
21.633108,4.527454999872628,0.1214069544173172
21.635492,4.543333932074972,0.1209147208124114
21.637876,4.565079396889707,0.120312816122218
21.640272,4.583751825771385,0.1197758031164137
21.642656,4.605357520959259,0.1191895504349493
21.645056,4.623098784281161,0.1186689617101012
21.647452,4.637394924617668,0.1181858938216753
21.64984,4.655415727193289,0.1176454025226078
21.65222,4.67371606902263,0.1170906923762706
21.654616,4.690014310105555,0.1165803293425082
21.657004,4.707243716748258,0.1160627504928141
21.659384,4.726055915256797,0.1155402977370018
21.661788,4.74286601301892,0.1150607665430519
21.664176,4.755532139661346,0.1146690591571072
21.666556,4.765776856676776,0.114348516621802
21.66896,4.771598063318794,0.114133909640716
21.671348,4.775417169214393,0.1139582428605783
21.673728,4.779236275109993,0.1137840270876704
21.676124,4.7824037546995335,0.1136023963997289
21.678512,4.790506601341687,0.1133361271253453
21.680892,4.7998201527973405,0.1130412440703576
21.683288,4.809785330559051,0.1127559673012598
21.685676,4.816817242014567,0.1125208733500626
21.688056,4.827061959029997,0.1122178455850003
21.690456,4.833442244179454,0.1119755142888001
21.692844,4.839822529328911,0.1117289820072687
21.740632,4.8440137222768485,0.1115787527506063
21.743016,4.8517879119791685,0.1115724976654495
21.7454,4.864637238360962,0.1114789108977951
21.747796,4.884983111049226,0.1112358216130375
21.750184,4.909612724484043,0.1109125171783127
21.75256,4.944392611277804,0.1104242955253266
21.754956,4.979452037325286,0.1099180993049053
21.75734,5.009436326693296,0.1094950091755166
21.75972,5.034113161956356,0.1091255390749298
21.762136,5.054785795726582,0.1088212716656411
21.76452,5.077740069496946,0.1084691080368762
21.7669,5.097761076961114,0.1081602939129916
21.769304,5.123136760358475,0.1077543565263757
21.771688,5.1495833789424745,0.1073301966384508
21.774068,5.178451407153472,0.1068482225546249
21.77646,5.2118827153647445,0.1062635168416899
21.778848,5.246804267643236,0.1056334106571111
21.781228,5.2810741936156695,0.1049983083677726
21.78364,5.318836464401738,0.1042869814185128
21.786028,5.353433151456135,0.1035774638230206
21.788408,5.382023536271281,0.1029727202198204
21.790812,5.404375301421699,0.1024226417080471
21.7932,5.422862634706142,0.101925716818691
21.79558,5.436274831311114,0.1015103884405966
21.797984,5.444751660863474,0.1011647079464931
21.800368,5.442426590750832,0.1009600249603343
21.802748,5.440892916571108,0.1007554802461343
21.805152,5.444853687951437,0.1004510573854129
21.807536,5.444530718585213,0.1002167614105235
21.80992,5.445697993286206,0.0999365103526019
21.81232,5.443280375374948,0.0996847287004893
21.814708,5.445146498210243,0.0993613363745248
21.817084,5.437002117313454,0.0991737140294778
21.819484,5.427274944550829,0.0989859027214275
21.821868,5.4171284629076215,0.0988249583098488
21.824252,5.406422902756976,0.0986996494015431
21.826648,5.396508738539248,0.0985738886296429
21.829032,5.384452703948242,0.0984829505791465
21.831412,5.371325734170598,0.0984083944665124
21.833816,5.361643887378346,0.09831666090611
21.836204,5.34795783909326,0.0982773329316388
21.838584,5.337856683420427,0.0982118708455207
21.840988,5.331619959613569,0.098102781396874
21.843372,5.326314401366489,0.0979849023330352
21.845752,5.320869073492549,0.0978756157969351
21.84816,5.319148407857723,0.0977310606592215
21.850548,5.316636346289977,0.0975864606777117
21.852924,5.309840543975678,0.0975117208290263
21.855324,5.310121979087269,0.0973405140008735
21.857708,5.313196910878193,0.097145129747088
21.860092,5.317714864908093,0.0969590495828735
21.862488,5.317809308564581,0.0968518086621381
21.864876,5.326191694460454,0.0966228681394641
21.867256,5.337227807408802,0.0963793300206603
21.869656,5.345749962931537,0.0961428974904853
21.872044,5.354831196961711,0.0958725823935986
21.874424,5.358045898379495,0.0956687197570892
21.876828,5.362191765357059,0.095455308321143
21.879216,5.365406466774844,0.0952510631169988
21.881596,5.36876093781949,0.0950391107381613
21.884,5.380123811849801,0.0947273074789762
21.886388,5.392697390693612,0.0943932061248742
21.888768,5.400335602484812,0.0941173584495461
21.891168,5.404109382410036,0.0938800229023696
21.893556,5.40881432789504,0.0936342249728411
21.895936,5.414590208566683,0.0933723229222016
21.898336,5.419295154051687,0.0931270884001488
21.900724,5.427073135469746,0.0928402713907656
21.903104,5.433919951328027,0.0925638528063939
21.9055,5.434480925693338,0.0923777410844408
21.907884,5.438114935991703,0.0921524924763275
21.910264,5.441097319984011,0.0919162121765093
21.91266,5.442589459909099,0.0917238539942399
21.915044,5.443941830207328,0.0915416669357152
21.91744,5.445806057184754,0.0913769197550169
21.919836,5.445528413788903,0.0912444585505367
21.92222,5.448975432632166,0.0910810655921216
21.9246,5.45163105554251,0.0909156460063562
21.927004,5.453075973639356,0.0907750670457669
21.929392,5.453449956549562,0.0906510976686301
21.931776,5.449819737966935,0.0905746036958471
21.934172,5.441114382704836,0.0905601751556166
21.936556,5.434550897816013,0.0905137908308874
21.93894,5.4349248807262205,0.0903902764484539
21.941336,5.436509568449925,0.090242619492286
21.943724,5.437442629867572,0.0900854809332165
21.946104,5.43823592165836,0.0899364334504824
21.948508,5.437166882329591,0.08980178897693
21.950896,5.4342355118812655,0.0896812804858636
21.953276,5.43772975255277,0.0894674004684084
21.955672,5.438290726918081,0.0892842154947744
21.95806,5.442716133149364,0.0890653716588196
21.96044,5.445558747514811,0.0888434428884341
21.962844,5.442674598894728,0.0886702729402621
21.965232,5.445145126207838,0.0884221174174262
21.967612,5.446684487961169,0.0881795608422587
21.970012,5.450505489714638,0.087899497695958
21.972396,5.463266060013552,0.0875312229173089
21.974776,5.477377104752827,0.0871315515981151
21.977176,5.492838623932459,0.0867029821771941
21.97956,5.507648516806034,0.0862645921516253
21.981944,5.525671215239523,0.0857803922927905
21.984348,5.545835784046291,0.0852715221038825
21.986736,5.563998252106641,0.0847893888734521
21.989116,5.579506993114518,0.0843180139958707
21.99152,5.595015734122394,0.0838486995388238
21.993908,5.612806115130407,0.0833441782402755
21.996288,5.634321158377532,0.0828200622420234
21.998684,5.656487827930716,0.0823062152122622
22.001072,5.67250842561779,0.0818608718357865
22.003452,5.689739728118361,0.0813960026142794
22.005856,5.704317303566457,0.080942413603758
22.008244,5.720896979760972,0.0804714778983689
22.010624,5.7424120230080975,0.0799548299283866
22.01302,5.755918663269556,0.0795155445581897
22.015408,5.773429505023849,0.0790399496284431
22.017788,5.788007080471946,0.0785909395199858
22.020184,5.793645087374598,0.0782254354316479
22.022572,5.797932619836891,0.0778884985004942
22.024952,5.799658973045326,0.0776013609682206
22.027348,5.80203695255982,0.0773249075003292
22.029736,5.805997723940148,0.0770557066336632
22.03212,5.806745689760563,0.0768253165894918
22.034516,5.80456038927478,0.0766168112632763
22.0369,5.804889046214613,0.0764095220484532
22.039284,5.801865127967671,0.0762468539086929
22.04168,5.799632605653645,0.0760880454848627
22.044068,5.793395881846786,0.0759634460414205
22.046464,5.787298927666788,0.075831059590507
22.04886,5.784135239792985,0.075676624704243
22.051248,5.775896415239709,0.075567802402262
22.053628,5.76896084329855,0.0754808774337027
22.056032,5.758812465797473,0.0754306201771559
22.05842,5.745451282736483,0.075417252512241
22.060804,5.7407501289672185,0.0753474808501391
22.0632,5.733907104824676,0.0753019690443118
22.065588,5.7267845414284135,0.0752717766689801
22.067968,5.719522208405289,0.0752493319350694
22.070364,5.714261976128583,0.0752101116912335
22.072748,5.713425254225291,0.0751144394585664
22.075128,5.713379928254916,0.0750223405015947
22.077532,5.713194832657681,0.0749385481431816
22.079916,5.713661363366506,0.0748657537817147
22.082296,5.718783721874221,0.0747719016227307
22.0847,5.72190397963552,0.0746942889587912
22.087088,5.729819834822571,0.0745874635946711
22.089468,5.739458251502317,0.0744817137663442
22.091872,5.750167603368702,0.0743641109354943
22.09426,5.760876955235088,0.0742468436184604
22.09664,5.774519573407669,0.0741111602766722
22.099044,5.794680350498696,0.073946726919764
22.101428,5.812187400537251,0.0737862662785776
22.103808,5.833558882441779,0.0736021467644122
22.106208,5.860145270652638,0.0733685011904713
22.108592,5.877000694385135,0.0731983533389637
22.110972,5.890643312557716,0.0730618452364496
22.113376,5.9081503625962695,0.0729024448431209
22.115764,5.932594880433852,0.0726945413229709
22.118144,5.955968463084797,0.0724989684939127
22.120548,5.974918535362327,0.072358299893132
22.122932,5.993216981333799,0.0722074237148248
22.125312,6.009001469879656,0.0720539344571951
22.127716,6.02813853361229,0.0718611023711015
22.130104,6.040477899172753,0.0717089182484754
22.132484,6.054959135106494,0.0715348639539072
22.134888,6.066786643987761,0.0713650947416067
22.137272,6.069162727644385,0.0712392465276999
22.139652,6.072609746487647,0.0711027567453792
22.142048,6.079269570890825,0.0709346840868156
22.144436,6.083135898614668,0.0707784046761718
22.14682,6.084488268912898,0.0706188546047604
22.14922,6.086120178464846,0.070443847180938
22.151608,6.085098360964319,0.0702722049242424
22.153988,6.079001406784322,0.0701392844595177
22.156392,6.0801214596570725,0.0699461050999561
22.158776,6.087527354022794,0.0696967389755426
22.161156,6.092419290962903,0.0694445684615204
22.163552,6.091584464917478,0.0692206550773868
22.16594,6.092239882939276,0.06896568157062
22.16832,6.091172739468375,0.0687081916255135
22.170724,6.089034660810837,0.0684607365715433
22.173108,6.090900783646131,0.0681878351910352
22.175488,6.0858294386823975,0.0679571544882857
22.177888,6.0887664967043325,0.0676741438448065
22.180276,6.091843324353127,0.0673854268891931
22.182656,6.097993187934974,0.0670748705985815
22.185052,6.112011684875631,0.0667184897270037
22.18744,6.127101117002925,0.0663552766011993
22.189824,6.138186347637386,0.0660196624789521
22.19222,6.149411347898707,0.065678061097189
22.194608,6.160776117786889,0.0653305001240417
22.196988,6.174934384354405,0.064975510019026
22.199384,6.191886147601257,0.0646145156002182
22.201772,6.210328154915327,0.0642223714823684
22.204152,6.227559457415898,0.0638502258317761
22.206548,6.238924227304081,0.0635071588845921
22.208936,6.252011558684958,0.0631684979194325
22.21132,6.264027954879199,0.0628380078409004
22.213716,6.272691775886663,0.062542074738864
22.216104,6.287501668760238,0.0622061066380748
22.218484,6.305384597566868,0.0618514567224714
22.220884,6.31605051932075,0.0615462123065645
22.223268,6.332862512940741,0.0612006973345476
22.225652,6.343947743575202,0.0608766259761796
22.228048,6.35102877271683,0.0605739216636431
22.230436,6.35717863629868,0.0602753949616282
22.232832,6.360395233574334,0.0599902772607709
22.235228,6.357605528610737,0.0597358002142627
22.237612,6.354676054020279,0.0594874456504367
22.239996,6.350396104989463,0.0592609167037137
22.242392,6.3447656815182905,0.059056167899661
22.244776,6.341277128420392,0.0588357144920784
22.24716,6.338068114576214,0.0586032542414694
22.249564,6.337373058157652,0.05837996867854
22.251952,6.336538232112228,0.0581640651305321
22.254332,6.343572039425614,0.0579178661159128
22.256728,6.345670479686387,0.0576917506001519
22.259116,6.3504226469996325,0.057467758220117
22.261496,6.360389720619214,0.0572114049535958
22.263896,6.366073053492239,0.0569878756161533
22.26628,6.369754285618847,0.0567745547533943
22.268664,6.377719258492012,0.0565289811882611
22.27106,6.382331656178398,0.0563140074992621
22.273448,6.390668716103898,0.0560947169711135
22.275828,6.401007876775815,0.0558656363263878
22.278232,6.4102761022610935,0.0556452976175526
22.28062,6.420195954052431,0.0554368476142606
22.283,6.436122108083017,0.0552021743193723
22.2854,6.455912693979578,0.0549581851371865
22.287784,6.477984919876276,0.0546934172488919
22.290168,6.503409720959749,0.0544013031037819
22.292572,6.5265528820430845,0.0541337272194508
