Time,Force,Position
23.8069,2.379006954510821,0.1756889221820605
23.809287999999995,2.379054176339064,0.1755739943264319
23.811668,2.384269082645397,0.1752610241932655
23.814068,2.3897163063772067,0.1750228387535858
23.816455999999995,2.396466782721132,0.1747875663003597
23.818836,2.4119698361554,0.1742024837689212
23.82124,2.439018963359344,0.173133620993577
23.823628,2.4703046094816004,0.1718812690062125
23.826008,2.495304414110885,0.170984874543541
23.828408,2.51415814687406,0.1704569366210278
23.830791999999995,2.539949347436264,0.1695776245111884
23.833176,2.564529843184969,0.1688239042783721
23.835572,2.5863168422543383,0.1681822856706755
23.837959999999995,2.6034480135248166,0.1677435147927547
23.840344,2.624351068862651,0.1670087535043668
23.84274,2.64246062752115,0.1664073064650793
23.873792,2.7685059397019147,0.1661106643864384
23.88096,2.779166173882188,0.1659150936535454
23.883356,2.785916650226113,0.1657210162206982
23.885752,2.802537860675264,0.1650915116864958
23.88814,2.820741862990249,0.164457343350013
23.890519999999995,2.842670527544348,0.1636864634410748
23.892916,2.8603154513518927,0.1631530024437869
23.895304,2.880242015159575,0.1625150136891179
23.897684,2.904220002288333,0.1616067355957865
23.900088,2.928896837551394,0.1606194364105566
23.902476,2.9564143913220327,0.1594183585820803
23.904855999999995,2.9872845202794456,0.1580645181114758
23.907252,3.0218793114759728,0.1565829896082869
23.90964,3.060338534538474,0.1549399739961886
23.91202,3.1018707935340304,0.1531939333829541
23.91442,3.139026763984416,0.151562065310621
23.916808,3.1718989936882465,0.150115317319597
23.919188,3.209566820817829,0.1485114490172787
23.921592,3.2426713679471373,0.1472089784745347
23.981324,3.183556573835233,0.1465994040357311
23.983708,3.191377985365797,0.1464266276477818
23.986104,3.2020854413743134,0.1462495127336908
23.988492,3.214515458875526,0.1460388028637294
23.990872,3.2397494767881576,0.1454192282545072
23.993268,3.2735037543656547,0.1445666583720876
23.995656,3.3031140608234573,0.1438589670241105
23.99804,3.333795302467898,0.1431208958467989
24.000436,3.36503562261978,0.1423251312795263
24.002824,3.390269640532412,0.1417155606364255
24.005204,3.4136413273254878,0.1411605580061828
24.007608,3.4468837482237857,0.1402988611636614
24.009996,3.4777047594950874,0.1395668705809515
24.01238,3.5093171666993075,0.138847857817394
24.014776,3.54451446651578,0.1380463484320225
24.017164,3.5792924574516727,0.1372763372995159
24.019544,3.615932779507122,0.1364439419325661
24.021944,3.658719173428681,0.1353942712359355
24.024332,3.699363696976964,0.13445853210258
24.026712,3.738657746084888,0.133628551061431
24.029108,3.769012226647365,0.1330672301826497
24.031496,3.797783915344007,0.1325411951765166
24.033876,3.820968610681979,0.132144197311507
24.036276,3.8445726149005313,0.1317148235467267
24.041044,3.86035331173065,0.1316503272684991
24.04344,3.868407040686692,0.1315672813472662
24.048212,3.880510297105941,0.1315146536682916
24.067328,3.898245872854233,0.1314666059268276
24.069708,3.89643076356292,0.1314315008645444
24.074496,3.88581775121089,0.1314007844686631
24.076892,3.883817546322343,0.1312442931701327
24.079288,3.881025945500877,0.1310943839330429
24.081676,3.883309481358883,0.1308089165131445
24.084056,3.881868354977776,0.1306000776131555
24.086456,3.884943286768701,0.1303072279181731
24.088844,3.895235225612375,0.1298152248516085
24.091224,3.903245524455911,0.1294052998928508
24.09362,3.908881635500693,0.1290121402733325
24.096008,3.916799386545613,0.1285422674191926
24.098392,3.92085270572456,0.1281635826997688
24.100788,3.92932953527692,0.1276470384869925
24.103176,3.939156839269639,0.1270680494324978
24.105556,3.9531281143820527,0.1263816173563864
24.107956,3.968170324681104,0.1256683069397611
24.110344,3.983352304607017,0.1249489671470998
24.11272,4.003329881958681,0.1241396867240326
24.115128,4.025961186362819,0.123296255507677
24.117512,4.044960376326461,0.1225903109922342
24.119896,4.061817695916827,0.1219407416601115
24.122296,4.079978268119308,0.1213045413752206
24.12468,4.099070005881567,0.1206612082919894
24.201132,3.894668912910433,0.1203692980142931
24.20352,3.904073116306834,0.1202681539318666
24.205904,3.913477319703234,0.1201657914478388
24.2083,3.928887825338885,0.1199290812096381
24.210688,3.9457413532135113,0.1196983477107382
24.213072,3.970323744820085,0.1193146117531811
24.215468,4.00147151717335,0.1187586861105032
24.217856,4.033922542138731,0.1182157995478
24.22024,4.0673047326638905,0.1176618639760241
24.222636,4.103108332816047,0.1170175059617883
24.225024,4.130903529982536,0.1165569037868737
24.227408,4.155533143417354,0.1161139267694468
24.229804,4.173644597933722,0.1157822187688319
24.232192,4.192454900584392,0.1153881211082048
24.234576,4.20782008024967,0.1150384473451701
24.236972,4.225746439168804,0.1146012372770366
24.239364,4.239296509542767,0.1142166237183859
24.241744,4.257409859917004,0.1137029525582353
24.244144,4.27752531103766,0.1131481225986558
24.246532,4.297128905479117,0.1125763544751412
24.248912,4.309795032121546,0.1121481868144802
24.251308,4.319388122830917,0.1117889342819676
24.253696,4.33019191835379,0.1113914036540597
24.25608,4.337131282010687,0.1110657058569092
24.258476,4.344350184921306,0.1107185619702302
24.260864,4.349986295966089,0.1103830476183741
24.263248,4.346403299211705,0.110236768572592
24.265648,4.346452416897817,0.1099843664844954
24.268035999999995,4.344778973091233,0.1097467881800328
24.270416,4.345247399657926,0.1094625156598038
24.272816,4.348137235851617,0.1091048020943335
24.2752,4.3520980072319455,0.1087230686168676
24.277584,4.360482288985689,0.108232792584023
24.27998,4.369937505926071,0.1077217734910924
24.282368,4.379252953239593,0.1072231892426234
24.284752,4.385635134246919,0.1067761598797395
24.287148,4.397092451933718,0.1062375465820319
24.289536,4.401612301821488,0.1058172071322989
24.291916,4.402267719843285,0.1054550034539772
24.294316,4.403574764171139,0.1051042403569539
24.296704,4.408094614058909,0.1046833583046823
24.299084,4.413964938387037,0.1042168313952899
24.301484,4.417833161968749,0.1037841556410371
24.303872,4.425565817416435,0.1032956290313744
24.306256,4.431575911371423,0.1028207135242689
24.308652,4.431300163833442,0.1024705804923153
24.31104,4.434097452228516,0.102058156472016
24.313436,4.430748668757477,0.101762888661666
24.315832,4.426980576405859,0.1015002433466876
24.31822,4.421070613680964,0.1012843320007998
24.3206,4.415812277262128,0.1010784986035013
24.322996,4.408923927149211,0.1009400197281508
24.334932,4.354923908113546,0.1008550025309699
24.337328,4.347708796918666,0.1008017889609907
24.33972,4.34328718240312,0.1007147994300004
24.3421,4.336211840835101,0.1006502815873955
24.3445,4.3280655640804415,0.1006074596785945
24.346888,4.3212225399379,0.1005859002197083
24.354056,4.302648346428446,0.1005518319088004
24.35644,4.300181610831074,0.1004966918837316
24.35884,4.304512573405873,0.1003452847395113
24.361224,4.311637032660005,0.100160161068297
24.363608,4.321043131914273,0.0999208843574452
24.366004,4.329378295981905,0.099702949566229
24.368396,4.339063934489895,0.0994430963336314
24.370776,4.351310752251743,0.099107688264249
24.373172,4.363417800386729,0.0987855377855392
24.37556,4.380739754828049,0.0983657261099449
24.377944,4.397642400388787,0.097979110018501
24.38034,4.413054801882308,0.0976497986502795
24.382728,4.4301897648685244,0.0973086111984344
24.385112,4.443180756735047,0.097044185579703
24.387508,4.457242683788207,0.0967599346942688
24.389896,4.473958337893844,0.096455867511146
24.392275999999995,4.4902546831188985,0.0961835848318074
24.394672,4.503385444612282,0.0959104050396398
24.397064,4.516795745359386,0.0956210402687972
24.399443999999995,4.536863974651797,0.095252668600585
24.401848,4.555349412078373,0.0948864861120672
24.404236,4.572763914318309,0.094540091669594
24.406616,4.581238848012801,0.0943266381155365
24.409016,4.59185565208057,0.0940751453795205
24.411404,4.602332686521477,0.0938363745594336
24.413784,4.617745088014997,0.0935337392732397
24.416184,4.632877950254797,0.0932549840737861
24.418572,4.648662438800653,0.0929917020745307
24.420952,4.6635157617867335,0.0927380615151887
24.423352,4.678508854399673,0.0924795181771555
24.42574,4.694992191079831,0.0921744244403726
24.42812,4.712034606267431,0.0918316659424629
24.43052,4.733220992574724,0.0914317521226332
24.432908,4.755897622949236,0.0909843957547062
24.435288,4.778853792577469,0.0905224558771264
24.437684,4.799947631086146,0.090077886013901
24.440072,4.819877986609567,0.0895989946301159
24.442456,4.845115796237936,0.0890961676006804
24.444856,4.865138699559975,0.0886719018536417
24.447244,4.878643443963564,0.0883048940121681
24.449624,4.89401051948671,0.08792579077927
24.452024,4.9103087605696345,0.087537966931801
24.454412,4.929680037585615,0.0871042263637691
24.456796,4.94625781792226,0.0866968954588495
24.459192,4.962044202325987,0.0862900021236762
24.46158,4.974105924490599,0.085918588796485
24.463964,4.987098812214991,0.0855431962622456
24.46636,4.99622726807341,0.0852066404447229
24.468752,5.001631061692716,0.084896452214869
24.471132,5.003030653819186,0.0846350290814149
24.473528,5.0013572100126025,0.0844140220604379
24.475916,4.997030039153544,0.084204757952342
24.478296,4.984694465308818,0.0840899064645174
24.480692,4.972219121837231,0.0839834330883348
24.48308,4.957182599111787,0.0839376928876868
24.485464,4.944939573065678,0.0838705248174492
24.48786,4.936001900378102,0.0838033265758432
24.490248,4.92441050063805,0.0837464868144997
24.492628,4.918685633510389,0.083631160089992
24.495028,4.915754263062063,0.0834951438099292
24.497412,4.908678921494044,0.0834136811233752
24.499796,4.905607781418857,0.0832876620871161
24.5022,4.9045387420900886,0.0831399442961402
24.504588,4.905052494627154,0.0829976927465627
24.506968,4.907149039030058,0.082861572645115
24.509364,4.9078951089926015,0.0827588470004314
24.511752,4.904776747089173,0.0826904941787298
24.514136,4.906453982611495,0.0825817800667445
24.516536,4.918001952239042,0.0823761171398722
24.518924,4.931924109665343,0.0821781280401778
24.521304,4.9505020948905365,0.0819504558446841
24.523703999999995,4.971314498287623,0.0817405445607364
24.526092,4.997062268737322,0.0814793158521757
24.528476,5.0236014351199385,0.081223379713212
24.530871999999995,5.053632946316191,0.0809051358918937
24.53326,5.07966025601961,0.0806295679257932
24.53564,5.103965004230332,0.0803593255648915
24.538039999999995,5.125848342814057,0.0801371538525143
24.540428,5.146009119905085,0.0799218742001605
24.542812,5.1632366306899184,0.0797319029948351
24.545207999999995,5.183537177407809,0.079505551671369
24.5476,5.198110961140167,0.0793258728480172
24.54998,5.212824514499386,0.0791408403808786
24.55238,5.228748772672104,0.078934798070246
24.554768,5.238294641553233,0.0787580842289405
24.557152,5.248399588941805,0.0785456864734367
24.559552,5.263719442636708,0.0782718125068177
24.56194,5.27452323815958,0.0780182703724057
24.564324,5.278389565883423,0.0778317086822575
24.56672,5.281092410622009,0.0776126435209422
24.569104,5.279139427561705,0.0774202344389212
24.571487999999995,5.273601551889148,0.0772395396894668
24.573888,5.26806367621659,0.0770592920482045
24.576272,5.2613150957305335,0.0769016354964332
24.578655999999995,5.250841853005364,0.0767638259336718
24.581052,5.242510480653471,0.0765983553341765
24.58344,5.234458647555299,0.0764153784287981
24.58582,5.227105662591428,0.0761888367170339
24.58822,5.218681742440919,0.075975995555671
24.590608,5.2201285563956334,0.0756815793077342
24.592988,5.220923744044289,0.0753759791618726
24.595388,5.22572313318578,0.0750350221976681
24.597776,5.223445284901381,0.0747594628643927
24.600156,5.217163235124148,0.0745196524893374
24.602552,5.219401445011782,0.0742289531786596
24.60494,5.222291281205473,0.0739504774328095
24.607324,5.222899477399025,0.073708727745191
24.60972,5.228443040645191,0.0734293433346041
24.612108,5.234917769451133,0.0731453885450125
24.614488,5.244046225309552,0.0728583656294682
24.616888,5.257178882660803,0.0725387750166472
24.619276,5.27338457594511,0.0721883884750091
24.62166,5.2858656069903045,0.0718541482764318
24.624068,5.302770148408913,0.0714655361746243
24.626456,5.322840273559194,0.0710943077676906
24.628836,5.346123204269391,0.0706908195949318
24.631232,5.369126595725868,0.0703055734004609
24.633624,5.393852548675041,0.0699230050316381
24.636004,5.417507566437575,0.0695521379614893
24.6384,5.430220914908246,0.0692670869008773
24.640788,5.439581688192142,0.0690246885062515
24.643168,5.4478715262894,0.0687964597163911
24.645564,5.461096731439268,0.0685311472189274
24.647952,5.478465907708832,0.068227512845671
24.650332,5.491970652112419,0.0679498196097317
24.652728,5.507477497262426,0.0676590213600026
24.655116,5.519119910546459,0.0673894317415201
24.6575,5.525267878270439,0.0671863520912529
24.659896,5.531276076367559,0.066991443602945
24.662284,5.536353108904899,0.0668015333082047
24.664664,5.538217335882326,0.066646017992296
24.667064,5.541804124352449,0.0664927107840085
24.669448,5.548975805434823,0.0663339402964965
24.671832,5.552934680957283,0.0662102359584012
24.674232,5.5563816998005455,0.0660669961000379
24.676616,5.556615913083892,0.0659569996241344
24.679,5.559643623046573,0.065838905943753
24.681396,5.563602498569032,0.0657188967304963
24.683784,5.572776280397824,0.0655558449940047
24.686164,5.590098234839144,0.0653337137183091
24.688559999999995,5.615568361892992,0.0650541946257329
24.690948,5.63982778413334,0.0647937465963248
24.693332,5.665949537493246,0.0645298970074784
24.695727999999995,5.686716614919959,0.0643163827330366
24.698116,5.704410656413617,0.0641244445516025
24.7005,5.721964928280413,0.0639423520942535
24.702896,5.742312696826547,0.0637514458972491
24.705288,5.766013040559454,0.0635223144724273
24.707668,5.788782218732584,0.0632952967350459
24.710068,5.810480461719075,0.063079863125688
24.712456,5.835391510265482,0.0628359139085244
24.714839999999995,5.85951116287897,0.06258960321027
24.717236,5.883910354746179,0.0623302013284742
24.719628,5.905516049934053,0.0620781806198317
24.722007999999995,5.928332449935426,0.0618126335941939
24.724404,5.951148849936799,0.0615477876551484
24.726792,5.971591062139416,0.0612708593423706
24.729175999999995,5.989100008035839,0.0610090600466703
24.731572,6.001673586879651,0.0607749068100398
24.73396,6.008101093857352,0.0605828377704143
24.736343999999995,6.006659967476245,0.0604284609706273
24.73874,6.007640250722136,0.0602426403872123
24.741132,6.007037742102191,0.0600470571255702
24.743512,6.014071549415575,0.059783666751268
24.745912,6.029533068595207,0.0594595402742657
24.7483,6.041549464789447,0.0591289868183429
24.750684,6.056127040237543,0.0587627257699883
24.75308,6.069913219752722,0.0583928981459824
24.755468,6.087331513708397,0.0579794372090803
24.757852,6.105029346917793,0.0575533792045862
24.760248,6.1197939138209945,0.0571403712015607
24.762636,6.13190475367172,0.0567250319287414
24.76502,6.147368168709222,0.0562841010495615
24.767416,6.164042288560222,0.0558274258569695
24.769804,6.173499401358473,0.0554114496836509
24.772188,6.183096283783584,0.0549892743488673
24.774588,6.193344792514754,0.0545814549059281
24.776976,6.202522366059284,0.0541797639382262
24.77936,6.209697838857399,0.053784991710697
24.781756,6.216081915722595,0.0533814423301455
24.784144,6.226470194080624,0.0529596181223875
25.080656,1.8820749673697876,0.052854204132251
25.085424,1.8001796199375386,0.0528229618144818
