Time,Force,Position
26.858728,2.339624036273253,0.1723135324677041
26.86117200000001,2.4065130200874782,0.1715046893333556
26.863612000000003,2.477036014200068,0.1700017968863535
26.866044,2.5343848167067717,0.1689786224619749
26.868488,2.5836345642870597,0.1680094035676563
26.870924,2.6272519925383038,0.1671829846765306
26.873368,2.66709943258006,0.1663610934171447
26.875816,2.7048068981064084,0.165354884183435
26.878256000000007,2.727105753854976,0.1647220681569614
26.880700000000004,2.7388841450501302,0.1643106635661157
26.885588,2.745169986543101,0.1639515610524688
26.888036,2.7522472239689906,0.1635892146620442
26.897836,2.755692346954383,0.1634722441724044
26.90028000000001,2.7630944496043663,0.1632726235721742
26.90274000000001,2.777014711172798,0.1628054396138275
26.90518400000001,2.79093497274123,0.1623266938105611
26.907632000000007,2.801549880951129,0.1619521805341176
26.91252,2.8124896543851223,0.1617345296429075
26.914960000000008,2.8204508355425464,0.1614744999541795
26.9174,2.830833426326968,0.1610673618173239
26.919848,2.839493455618693,0.1607135318928122
26.92228,2.845639527484804,0.1604267618275465
26.92472400000001,2.852065138604635,0.1601085167940968
26.927164000000005,2.8680819445759704,0.1594045422470371
26.929608,2.889965283159696,0.1584570337647755
26.932056000000003,2.9106379169299217,0.1575981721796039
26.9345,2.93596637849904,0.1565865862742607
26.936948,2.957662725627661,0.1558029173633433
26.939388000000008,2.98122140387584,0.1549467893826305
26.941820000000007,3.013068024363406,0.1537106121191075
26.944264000000004,3.046824197798772,0.1523139611377833
26.94670400000001,3.075552456382909,0.151058204122573
26.949144000000004,3.094549750488682,0.1502025198129146
27.01274400000001,3.031434546599683,0.1495468058583341
27.02498,3.011326678910505,0.1494417777275079
27.027428,3.009371799992332,0.1494247137307258
27.02987200000001,3.012864144805968,0.1492455770695449
27.03231600000001,3.0160769503658837,0.1491000267553274
27.03476400000001,3.0239455837246902,0.1488077805861133
27.037208000000007,3.0296723467102207,0.1486139382057514
27.039656000000008,3.04233657749478,0.1481542841016855
27.042100000000005,3.057002909025756,0.1476238994152103
27.044544,3.071436923131254,0.1470430898953725
27.046992000000003,3.088012807610029,0.1463783498529758
27.049436,3.1044489224619447,0.1457297560136074
27.051884,3.124330160299253,0.1449923362934396
27.054328,3.1452823333232,0.1441903263943281
27.056780000000003,3.162230304854313,0.1435484063304122
27.059224,3.1778278019450674,0.142999486054167
27.061672,3.1897931845953256,0.1426540027239259
27.06411200000001,3.204784381350396,0.1422874803900198
27.06656000000001,3.217493938105328,0.1420244885240962
27.069004000000007,3.2317862867260976,0.1417398538095592
27.07145600000001,3.249151671279922,0.1413479298732746
27.07388800000001,3.2665170558337464,0.14095600593699
27.076332000000008,3.284161979641292,0.1405337710846155
27.07878000000001,3.3011552771427786,0.1401130878790529
27.08122,3.3190797402040446,0.1396586469174198
27.083664,3.333000001772476,0.1393532562256901
27.098340000000007,3.378897174165988,0.1392741801439583
27.10078800000001,3.3889983298388198,0.1392594355452993
27.103228,3.4051057877509026,0.1390583432502589
27.105676000000003,3.422563720103344,0.1387841573872144
27.10812,3.438159321336229,0.1385567321066226
27.110568,3.4511011955166384,0.1383831908658125
27.11301200000001,3.459666781151878,0.1383009308812219
27.11546,3.4706537764141143,0.1381064391285541
27.127676000000008,3.4991421341412976,0.1380233926498456
27.13011200000001,3.5073356327242,0.1379104615012429
27.132564,3.5176710016803776,0.1377228575684802
27.13500400000001,3.5310794065696114,0.1374372658634917
27.13745200000001,3.545698516272344,0.1370989427969111
27.139896000000007,3.5644615970947706,0.1366222085190548
27.14236000000001,3.582433281984279,0.136155141079707
27.144804000000008,3.604316620568005,0.135510331902308
27.14725200000001,3.6188904043003634,0.13503318800068
27.14970000000001,3.627085798741134,0.1347009490281549
27.152144000000007,3.6276920990768176,0.1345629148298766
27.154584,3.628158629785642,0.1344394889070729
27.15702800000001,3.6289046997481855,0.1342861249268363
27.15947600000001,3.635005445643924,0.1339513730785725
27.161912,3.647112493778911,0.1334474505932466
27.164352000000008,3.660709785981118,0.1328753774917672
27.166804,3.6735156822504074,0.1323028304394558
27.16924400000001,3.6906053192662487,0.1315868675609644
27.17170800000001,3.7050412292296167,0.1309308559280869
27.174144,3.721619009566261,0.1302061676729469
27.176596000000004,3.737824702850568,0.1294426560164773
27.179044000000005,3.746953158708986,0.1288872104434804
27.181488,3.752356952328291,0.1284150174900409
27.183932,3.754036083708483,0.1280252388939536
27.186396,3.755343128036337,0.1276014585340233
27.18884,3.7539964453117167,0.1272251604587223
27.191288,3.755071172214093,0.1267566666960338
27.193736,3.7503719143026975,0.1264964744245419
27.19618,3.750608023443913,0.1261098048829157
27.198632000000003,3.753497859637604,0.1256751062328516
27.201076,3.75769094844341,0.1252509361089602
27.203524,3.763094742062715,0.124780494038781
27.205968,3.76835876605516,0.1243216196436737
27.20841200000001,3.7721325459803854,0.1239464893293227
27.225532,3.7245128120941775,0.1238397279274567
27.22798,3.7208353716833074,0.1238382174277711
27.230428000000003,3.721953528698189,0.1237289722763883
27.23286800000001,3.7257254127655455,0.1235768987537563
27.23532,3.72945007500466,0.123502417064017
27.2402,3.737503803960701,0.1234412108554928
27.24264000000001,3.741740322879011,0.1233891972420673
27.24508,3.74634892884966,0.1233743111607001
27.247524,3.752028470006947,0.1233282794337565
27.24996,3.7622712911645086,0.1231308902023516
27.252404,3.772234573068349,0.1229628445162342
27.254852,3.783408559785689,0.1227503906154689
27.25729600000001,3.792720215383473,0.1225750966481321
27.25974400000001,3.809109108407145,0.1222253402426438
27.26218800000001,3.831364534043208,0.1217461029100802
27.26464,3.858275787478162,0.1212009169732656
27.26708400000001,3.885047271286256,0.1206697096376288
27.269532,3.914519703975067,0.1200272440804802
27.271972000000005,3.9441319062907394,0.1193786144541819
27.274428,3.972673173419773,0.1187707581573549
27.27687200000001,4.004986324616164,0.1180375330847963
27.279324000000003,4.031153403946442,0.1174509372825764
27.281756,4.055737691410887,0.1168731155492252
27.2842,4.083302467009768,0.1161759837466201
27.28664400000001,4.107933976302453,0.1155460599118664
27.289088000000007,4.13885132708811,0.1147553197688998
27.291528,4.167766577127351,0.114011536535039
27.29397200000001,4.1930969345543385,0.1133161842441822
27.296424,4.217216587167827,0.1126633217573927
27.298872000000003,4.23826320384826,0.1120905141503364
27.301316,4.257587259035996,0.1115362134485989
27.303768000000005,4.278494106089569,0.110981942489222
27.306224,4.297538622023585,0.1104533777021743
27.30868000000001,4.31206707978557,0.1099942643606505
27.311120000000003,4.321427853069466,0.1095893771155436
27.31356000000001,4.321197431501858,0.1093507725943521
27.316004000000007,4.32110677956111,0.1091004749156922
27.31846,4.318874257247085,0.1089015241783886
27.320904,4.316781504559921,0.108691662522412
27.32334400000001,4.314688751872756,0.1084826070051148
27.32578000000001,4.310174589558594,0.1083467974624733
27.32822400000001,4.310875333550764,0.1080998443546129
27.330664,4.314090034968548,0.1078376324303988
27.33310800000001,4.309808190079863,0.107745425887561
27.335548000000003,4.30566611481804,0.1076417365169372
27.337992,4.302455205115993,0.107525770808369
27.340444000000005,4.3000356913468645,0.1074083433465397
27.34288400000001,4.303482710190127,0.1071947558324726
27.345332,4.307488807540831,0.1069368123584238
27.34777600000001,4.3085616385853385,0.1067255994415738
27.35022400000001,4.313498901495819,0.1064554831589204
27.35266800000001,4.316993142167325,0.1061782689374411
27.35511600000001,4.324491584331664,0.1058311858236209
27.35756400000001,4.33222234392148,0.1055269185605969
27.360008000000008,4.341116586496552,0.1052527248307494
27.362452000000005,4.35173339056432,0.1049595345072517
27.36490000000001,4.364212525751645,0.1046443072737964
27.367348000000007,4.3814872583647215,0.104261725327288
27.369792000000004,4.399693156537575,0.1038733370893756
27.37223200000001,4.413755083590737,0.1035629772576931
27.37468000000001,4.425535370643761,0.1033094593033931
27.37712400000001,4.43424262176373,0.1031152501599119
27.379580000000004,4.4410875417641416,0.1029458118107577
27.38202000000001,4.45007433213783,0.1027260422408747
27.384476000000006,4.459852518444437,0.1025064123433069
27.386916,4.463624402511794,0.102392490437751
27.38936000000001,4.470469322512206,0.1022224206145284
27.391804000000008,4.471447709900227,0.102145587166556
27.394256,4.472798184340586,0.1021012617918237
27.39669600000001,4.477873321020058,0.1020102068629126
27.39914800000001,4.479084025833557,0.1019769381291849
27.40404000000001,4.485974271804343,0.1019310493657194
27.40648800000001,4.490769869230094,0.1018656814483663
27.408928000000003,4.495984775536427,0.1017681320545017
27.411372,4.506274818522232,0.1015845709004112
27.413808000000003,4.513631595201842,0.1014450718435268
27.41869600000001,4.513259508149504,0.101413724419211
27.42114000000001,4.518753953709557,0.1012980080108233
27.423592,4.53053424076258,0.1010696666584018
27.42603600000001,4.5484605996817145,0.1007435017475251
27.428488,4.56545579304107,0.1004264935375304
27.430936000000003,4.587246583826178,0.1000499240725811
27.433384000000004,4.606243877931952,0.0997027168192132
27.435828,4.628174438343921,0.0993101910962945
27.43828000000001,4.6442384661434994,0.0990013666336467
27.440724000000003,4.661373429129714,0.0986692375000156
27.443172000000004,4.677856765809873,0.0983276677366509
27.445608000000007,4.694479872116892,0.0979783126521377
27.448052000000004,4.713756705476386,0.0976103169854742
27.450496,4.725723983984513,0.0973153046617237
27.45294,4.741695463985473,0.0969604885111762
27.455380000000005,4.7548734473071,0.0966399658532228
27.45782,4.770333070628862,0.0962736629014051
27.460276000000007,4.78393036283107,0.0959319000590045
27.462716,4.79566532391372,0.0956053687174626
27.46516000000001,4.80754005462323,0.0952673219822466
27.467612000000003,4.824769461265933,0.0948301922948673
27.470056,4.8349216304827465,0.094504396538496
27.472504,4.835203065594335,0.0943121731358724
27.474952,4.828547032906896,0.094214528550557
27.477400000000003,4.823381244286677,0.0940677515200651
27.47984000000001,4.8186347645470375,0.093892545945297
27.482296000000005,4.818172025553952,0.0936438361823697
27.484736,4.820922092120782,0.0933424186717452
27.487184,4.828607525740224,0.0929790695684484
27.48962,4.84122832641228,0.0925585594866671
27.492064,4.856270536711332,0.0920879249006248
27.494504000000006,4.87359438701052,0.0915797909772154
27.496948000000003,4.886402179137678,0.0911011304925613
27.499396000000004,4.904145338317448,0.0905646164373389
27.501828000000003,4.922168036750938,0.0900174453070973
27.50428000000001,4.934975828878096,0.0895403599645219
27.50672800000001,4.942289175445199,0.0891581653314076
27.509172000000007,4.9468090253329695,0.0887991782785939
27.511612,4.957474947086851,0.0883577214578242
27.514076000000003,4.970003199960288,0.0879017336303931
27.51652,4.978667020967752,0.087486871607137
27.518968,4.987470611602076,0.0870592084323621
27.521404000000004,5.00256004372937,0.0865352817333594
27.523848,5.018301102162722,0.086019000744852
27.526296,5.031480981342218,0.0855650159869039
27.52873600000001,5.040516889402019,0.0851738863781877
27.531188,5.046339991901905,0.0848356832509975
27.533628000000007,5.045225626602763,0.0845773088358668
27.57278000000001,4.817622775572834,0.0844765911695469
27.57522800000001,4.81022067292285,0.0844720253629254
27.580116000000004,4.8004443824741125,0.0844597216269926
27.58255600000001,4.80286579210111,0.0844088517866048
27.592348,4.798257186130462,0.0843848689523112
27.59478800000001,4.800259286876878,0.084361961962678
27.597232000000005,4.804822566877153,0.0842782349096662
27.599676,4.813157730944784,0.084106556116361
27.602128000000008,4.826428262065027,0.0838851180954499
27.604568,4.844913699491602,0.08359494612895
27.607016,4.862747510612119,0.0832959374313791
27.609468000000007,4.8789985298668,0.0829921391716962
27.611912000000004,4.899393520241175,0.0826359531970118
27.61435200000001,4.92113898505591,0.0822469932967875
27.616796000000008,4.945026320243921,0.0818311136029004
27.619236,4.961464330953706,0.0814662668028977
27.62168000000001,4.979624903156186,0.0811003551932601
27.624120000000005,4.996342453119691,0.0807249094657888
27.62657200000001,5.008823484164887,0.0803538001635966
27.629012000000003,5.027590356703051,0.0799037383942788
27.63146400000001,5.042400249576627,0.0794447719700638
27.633904,5.059212243196617,0.0789669369001655
27.63636000000001,5.082170308682719,0.078418565565369
27.638800000000003,5.103825121556705,0.0778442319879103
27.641248000000004,5.1296239055503845,0.0772195018196151
27.643692,5.145971264319423,0.0766635877884401
27.646136,5.163249788648238,0.0761061389261607
27.64858000000001,5.18225087446975,0.0755516619440309
27.65102800000001,5.1981789243582055,0.0750384543310879
27.653468000000004,5.208892067940329,0.0745871685988956
27.655912,5.218674045962676,0.0741428218354905
27.658352000000008,5.231389290291217,0.0736779939833196
27.660796000000005,5.24196266424648,0.0732426773417501
27.66323600000001,5.252955347082325,0.0727857408896166
27.665672,5.263668490664449,0.0723502956092641
27.66812800000001,5.2759644261124095,0.0719176919941782
27.670568000000003,5.285978721560232,0.0715196519912886
27.67300800000001,5.296504873687252,0.0711461481650855
27.675452000000007,5.309684752866747,0.0707688818176871
27.677912000000006,5.320582992046104,0.070429299925664
27.680356000000003,5.3310619223448805,0.070116321840689
27.682804000000004,5.343542953390074,0.0697911193485408
27.68525600000001,5.356163754062129,0.0694622999755996
27.687696000000003,5.372369447346437,0.0691283678133293
27.690144000000004,5.3912288676832185,0.0687968615565555
27.692588,5.417165525445891,0.0684107236632391
27.695036,5.4408205432084245,0.0680567731117942
27.69748,5.459679963545207,0.0677282105852967
27.69992400000001,5.476257743881852,0.0674305831905759
27.702364000000003,5.495908560151551,0.0671070582550763
27.70480400000001,5.512486340488197,0.0668082681697812
27.707260000000005,5.525711545638065,0.0665524835422944
27.709704,5.540147455601433,0.0662791392002127
27.712156000000007,5.552673812617001,0.0660657579151155
27.714600000000004,5.560404572206818,0.0658758208302411
27.717044,5.573629777356687,0.0656241243583911
27.71948400000001,5.589136622506693,0.0653428480449999
27.721936,5.601849970977365,0.0650718261898456
27.72438000000001,5.613492384261398,0.0648129016785192
27.72682800000001,5.624995027918571,0.0645630125339511
27.729276,5.636078362695162,0.0643367728161424
27.73172000000001,5.641015625605643,0.0641595102510265
27.73416800000001,5.642460543702489,0.0640302652636787
27.736608000000004,5.643625922545614,0.0639174266312491
27.73904800000001,5.63799360321657,0.0638393533758611
27.741492000000008,5.627658234260391,0.0638255440531918
27.743936000000005,5.621327066797046,0.0637856653612904
27.74638400000001,5.62179359750587,0.063712377062234
27.748832000000007,5.623470833028192,0.0636211909437047
27.751292000000007,5.629012500416488,0.0635137966115635
27.753736000000004,5.641491635603813,0.0633674829364775
27.75618800000001,5.655461014858359,0.063188903325678
27.758628,5.666077818926127,0.0630475876481488
27.761072,5.677113931874475,0.0628836062644137
27.76351600000001,5.693085411875436,0.0626927144878854
27.765968,5.70528500780904,0.0625628899829475
27.76841200000001,5.716553438182866,0.0624363455551728
27.77086,5.727682098929833,0.0623169274033349
27.773308,5.73773982449016,0.0622071641663177
27.77575200000001,5.74728569337129,0.0620780050774725
27.778208000000006,5.758182036692778,0.0619247946301714
27.780652000000003,5.775224451880378,0.0617292069650632
27.78309200000001,5.796410838187671,0.0615038191643734
27.785528,5.817225137442628,0.0612537686999771
27.78797200000001,5.84097270300378,0.0609889000906834
27.790412000000003,5.8632772463259535,0.0607036156250741
27.792856,5.878784091475959,0.0604482681354098
27.795304,5.89028673513313,0.0602187092916138
27.797748,5.901929148417163,0.0599824043707508
27.800204000000008,5.905702928342389,0.0597850439184801
27.802644,5.903470406028363,0.0596217733110333
27.805092,5.904822776326593,0.0594595577102106
27.807536,5.9072460818114605,0.0592874167885573
27.809988000000004,5.908738221736548,0.0591169539037037
27.812432,5.908368030542079,0.0589507892745648
27.81488,5.909627853041692,0.0587471762830754
27.817324,5.911679071474222,0.0585495580423537
27.819764000000006,5.913730289906751,0.0583513025445063
27.822208000000003,5.918854544272335,0.0581340877118288
27.824652,5.920626223451143,0.0579499067731474
27.827092000000007,5.919604405950618,0.0577705834416407
27.829532,5.916720257330534,0.0575956348630076
27.83198800000001,5.907317949792004,0.0574308952192235
27.834428000000003,5.895354462999614,0.0573045053353702
27.836872,5.883670515460947,0.0571634200815869
27.83932,5.8778531005346695,0.0569995093371701
27.84176400000001,5.878973153407419,0.0568045704728982
27.844216000000003,5.8783706447874735,0.056604702479301
27.846664000000004,5.875905805047972,0.0564069166577736
27.849112000000005,5.877584936428164,0.0561821430711866
27.851556,5.883408038928049,0.0559313129636756
27.85401200000001,5.881642047322848,0.0556974622968437
27.85645600000001,5.8841597964642,0.0554316267999411
27.85890400000001,5.88867964635197,0.0551567978443811
27.86134,5.891197395493323,0.0548906731959385
27.86378400000001,5.887848612022286,0.0546436524158632
27.866224000000003,5.884779367804969,0.0543833080677405
27.868668,5.882269202095094,0.0540938797649513
27.87111200000001,5.876034374146105,0.0538081604879027
27.873548,5.874083286943669,0.0534896734902477
27.876000000000005,5.87357522198021,0.0531898350459631
27.878444,5.865989919590862,0.0529223886996005
27.880888,5.860918574627128,0.0526646823609526
27.88332800000001,5.857197704103753,0.0523840503828041
27.885776000000007,5.85119519358024,0.0521259135993883
27.888220000000004,5.839977776750397,0.0519009228556671
27.890668000000005,5.824756158427719,0.0516935340748769
27.893108,5.810186166411099,0.0514986405339102
