Time,Force,Position
21.954828,2.168085530300129,0.1775323177848916
21.957215999999995,2.25792310031111,0.1752021425311789
21.959612,2.3390099890896177,0.1732819494383936
21.962008,2.4100882699939103,0.1721251509103458
21.964396,2.4753944619422987,0.1712859775756241
21.966776,2.5375822919872584,0.1704398129263629
21.969172,2.6005634138230054,0.169203077070001
21.97156,2.655677798157815,0.1682027757747189
21.973944,2.703484523499126,0.167297503452677
21.97634,2.7428654328320583,0.166637295248326
21.978728,2.7827600947020583,0.1656717506485802
21.981108,2.8153470975785617,0.1647600050477764
21.983512,2.8425359944093667,0.1637226982154787
21.99068,2.852266958887731,0.1632570466715363
21.993068,2.852686267768312,0.1631995578649838
21.995448,2.856178612581948,0.162996116346871
21.997844,2.859391418141863,0.1628308190682302
22.000232,2.8691223826202266,0.1624242763929928
22.002616,2.8818791612034023,0.1619721564619086
22.005012,2.9047389913172803,0.1611507654094979
22.0074,2.9273192821774368,0.1603612189384951
22.00978,2.9492479467315365,0.1595702194183764
22.012176,2.9703852153527173,0.1588116219887117
22.014564,2.994223432854616,0.1578983126116102
22.016948,3.011543491438067,0.1572258588989016
22.019352,3.0289107718497608,0.1564656787645637
22.02174,3.0426931596492013,0.1558134024156468
22.02412,3.0563829996500247,0.1550773357283688
22.026516,3.066208407784875,0.1544974645258216
22.028908,3.0762661333452024,0.1539747805494077
22.031288,3.082412205211313,0.1537020860898288
22.033692,3.0922829393165374,0.1532871117756218
22.03608,3.1064374141683158,0.1526507355276494
22.03846,3.1157490697660988,0.1523094408314892
22.040864,3.120217906109887,0.1522552255724223
22.043251999999995,3.1264093039463714,0.1521549114081153
22.071912,3.0851226333813773,0.1520394230777014
22.074296,3.0833075240900643,0.1520072579395763
22.076692,3.082982658865969,0.1518740533045883
22.07908,3.086801764761569,0.1515666135944382
22.081464,3.0890380787913325,0.1512830247033838
22.083867999999995,3.0874099609551218,0.1511388874554237
22.086252,3.086760230506933,0.1508682783918998
22.088636,3.0898823841261014,0.1503754900645046
22.09104,3.091281976252573,0.1499316542359214
22.093424,3.087606431699572,0.1496950850474072
22.095808,3.086305074945325,0.149416651104442
22.098204,3.0821629996835,0.149328589033705
22.102972,3.0757865062497807,0.149258572203421
22.105368,3.0731800010255497,0.1492368684569435
22.107756,3.071876748413434,0.1492262498935999
22.11014,3.0777905028540675,0.1489143237537048
22.112536,3.0837042572947007,0.1486093207776846
22.114924,3.0953919965491083,0.148013310237811
22.117304,3.1052174046839576,0.1474835522569524
22.119708,3.114158869087273,0.1468875424932686
22.122096,3.121517541624752,0.1463287630101432
22.124476,3.1307385452817877,0.1457265585250304
22.126872,3.1348844122593507,0.14531101840269
22.12926,3.142894711102887,0.1447716833791668
22.13164,3.1587736433052305,0.1439737193682319
22.13404,3.1739537273732736,0.1432536824085562
22.198556,3.0951050484823988,0.142690548877578
22.20094,3.111864132700539,0.1424820635298043
22.20332,3.134861836583408,0.1421354145515029
22.20572,3.1618637419591096,0.1416619076468415
22.208104,3.1896570432677294,0.1411813412477388
22.210488,3.2313252801744072,0.140272074626729
22.212883999999995,3.276997718573919,0.1392245542211317
22.215272,3.320807825853874,0.1382583216060421
22.217652,3.365968407574188,0.1371885460668777
22.220048,3.4092666581749445,0.1361522476530123
22.222436,3.446838145790172,0.1352831428157642
22.224816,3.483478467845621,0.1344545606753202
22.227216,3.522120890647487,0.1335578057672879
22.229604,3.551963514530767,0.1329429444767039
22.231984,3.5828770736006854,0.1323014575119899
22.23438,3.614721798230384,0.1316556522379453
22.236768,3.649779328419996,0.1309133538500814
22.239148,3.6840454626766905,0.1301974667683763
22.241548,3.719150214694546,0.129425580232475
22.243936,3.7545345059661215,0.1286409035139555
22.246331999999995,3.7901983364914185,0.1278323346376285
22.248728,3.822417044031322,0.1271034114913505
22.251116,3.8522615637724713,0.1264170808367613
22.253496,3.8743772197816737,0.1259071882198695
22.255892,3.895701479857958,0.1254043550974189
22.25828,3.9063636098961,0.1251626886387856
22.260664,3.916374113628185,0.1249169042042893
22.26306,3.923730890307795,0.124712609915797
22.265444,3.936162803666876,0.1243835682383262
22.267828,3.9547407888920687,0.1239013839717722
22.270232,3.9813271771029286,0.1232339554688688
22.27262,4.004840529380734,0.1226402662201393
22.275004,4.025560384979203,0.1220970483627331
22.2774,4.050563981324226,0.1214260848636803
22.279788,4.072634311363055,0.1208249828396194
22.282168,4.088326252110296,0.1203332333523674
22.284564,4.098431199498866,0.1199507415133888
22.286952,4.108024290208239,0.1195523960529037
22.289332,4.107606877185527,0.1193865231858421
22.291728,4.10532713304326,0.1192551364509456
22.298896,4.084845282443874,0.1192191322418044
22.301283999999995,4.083729021286863,0.1191174785470626
22.303668,4.08275252975671,0.1190031629728367
22.306064,4.084849074159613,0.1188129624174665
22.308452,4.083872582629461,0.1186982341038429
22.322788,4.040347702176835,0.1186843157552627
22.325168,4.032992821355094,0.1186677488782521
22.327568,4.025637940533354,0.1186516589697932
22.329956,4.024661449003202,0.1185388686848721
22.332336,4.026478454152384,0.1183791473512695
22.334736,4.023871948928153,0.1183431314347972
22.337124,4.029134077062729,0.1181416951534335
22.3395,4.033185500383805,0.117980731090071
22.341896,4.038447628518381,0.1177797575428441
22.344284,4.047062331839732,0.1174799508908738
22.346664,4.0578189055343605,0.1171204781215043
22.34908,4.06312825549718,0.1168497340169284
22.351464,4.068297835833138,0.1165916517918366
22.353844,4.072116941728737,0.1163873337621943
22.356248,4.079800479490311,0.1161083964438983
22.358636,4.082269110945551,0.1159555951103501
22.361016,4.083666807214153,0.1158308047411544
22.36342,4.082922633109479,0.1157621526157724
22.380148,4.068864497772056,0.1157334279227514
22.382524,4.067980554040521,0.115677714172022
22.384928,4.066165444749208,0.1156375945233765
22.387316,4.066492205831171,0.1155422142317101
22.396864,4.058253381277894,0.1154668240027347
22.39926,4.057089898292639,0.1154357629189332
22.401648,4.057137120120882,0.1153655623438779
22.404028,4.05439084526979,0.1153397674341313
22.406424,4.057790642284809,0.1151761754982535
22.408812,4.063192540046245,0.1149708889165301
22.411192,4.07581144486043,0.1146024440957749
22.413596,4.091503385607671,0.1141668169826869
22.415984,4.104122290421856,0.1137983721619317
22.418364,4.116229338556844,0.1134136613206508
22.42076,4.129686861132189,0.1129774723695455
22.423148,4.144355088521035,0.1125096312416549
22.425528,4.159674942215938,0.112051023489523
22.427924,4.177788292590177,0.1115478772027958
22.430312,4.190035110352024,0.1111555125659906
22.432692,4.199488431434537,0.1108054511335661
22.435092,4.208150356584132,0.1104597943628272
22.437476,4.214949950614169,0.1101428028721651
22.43986,4.222680710203986,0.1098108450802325
22.442252,4.23269310979394,0.109416319853826
22.44464,4.246197854197529,0.1089235872267506
22.447036,4.25849189378762,0.108474554191442
22.449432,4.269203141511874,0.1080308890757406
22.45182,4.280985324422767,0.107562183419131
22.4542,4.289042845094548,0.1071483194849281
22.456596,4.296588509087129,0.106715646867099
22.458984,4.297196705280682,0.1064096764001529
22.461364,4.297153275168177,0.1060959436407794
22.463768,4.298460319496032,0.1057331180817928
22.466156,4.295483623077332,0.1054659714438813
22.468536,4.290504825912215,0.1052349070861679
22.470932,4.2843153239336,0.1050400386268709
22.47332,4.276263490835428,0.1048698227165605
22.4757,4.266628865871418,0.1047013182294149
22.478096,4.260067276840466,0.1044711604842429
22.480484,4.25550778855593,0.1042031870478856
22.482864,4.250808530644533,0.1039466821851221
22.485268,4.245969503106277,0.1037009074049135
22.487656,4.239407914075324,0.1034680238858869
22.51154,4.130756249697936,0.1033376244466454
22.513936,4.128801370779762,0.1033048651358583
22.516324,4.131642089287339,0.1032001294806458
22.518708,4.131409771861862,0.1031545391016806
22.521112,4.135181655929218,0.1030376468453485
22.5235,4.138813770369714,0.1029320116510088
22.52588,4.1430975111162684,0.10283804960041
22.528276,4.149895209288437,0.1027329129715901
22.530664,4.1585552385801625,0.1026058278893658
22.533044,4.17243017417822,0.1023795883949502
22.53544,4.19096093757517,0.1020986567531784
22.537828,4.208420765785481,0.101838670147189
22.540212,4.227091298809291,0.1015436762847309
22.542608,4.247344623698937,0.1012496358208835
22.544996,4.272021458961996,0.1008528030444982
22.547372,4.301773430904529,0.1003710514253052
22.549772,4.3268695750481685,0.0999551979894775
22.552156,4.353316193632169,0.099491046390836
22.554552,4.378971416283251,0.0990293806570744
22.556948,4.402624538187915,0.0986001546749474
22.559336,4.428419530465858,0.0981347895602664
22.56172,4.45314358755716,0.097696576130759
22.564116,4.473723673528769,0.0973366686325578
22.566504,4.497237025806575,0.0969322633189525
22.568884,4.518608507711102,0.0965745073337275
22.57128,4.543844421481604,0.0961691763586832
22.573668,4.568009400065467,0.0957855190338649
22.576052,4.589520651596853,0.0954263654945362
22.578448,4.610380276822183,0.0950621954154132
22.580836,4.622672420554404,0.0948607290087472
22.58322,4.634312937980568,0.0946528572481632
22.585624,4.652099527272842,0.094351221948496
22.588012,4.67267961324445,0.0940257254631729
22.590396,4.69325969921606,0.0937023271172954
22.592792,4.711837684441253,0.0934106682298187
22.595184,4.72869310817375,0.0931343417827121
22.597564,4.744337827092747,0.09288565311455
22.59996,4.762264186011882,0.0925930346343261
22.602348,4.784054976796989,0.0922619329318895
22.604732,4.808406946835955,0.0918670965002223
22.607128,4.830756816128504,0.0915046863004692
22.609516,4.851384123928356,0.0911494928374401
22.611896,4.873082366914848,0.0907749316894
22.614292,4.89506014915506,0.09038440982922
22.61668,4.917037931395271,0.08999388796904
22.61906,4.936873843262205,0.089643658011971
22.621456,4.957268833636581,0.0892564657988444
22.623844,4.979805694384233,0.088839004192745
22.626228,4.997919044758471,0.0884982291384824
22.628632,5.019524739946345,0.0880795575714232
22.63102,5.0367069247608045,0.0877411448249399
22.6334,5.046020476216457,0.0874968885649981
22.6358,5.051609365432995,0.0872851354262289
22.638188,5.055335923529977,0.0870887654854069
22.640568,5.058131316067182,0.0868998984070199
22.674024,4.897334380342208,0.0868177720384268
22.676404,4.887046233214273,0.08678830667754
22.678804,4.878388099780418,0.0867055907621932
22.681192,4.871592297466117,0.0866085317770945
22.683572,4.864936264778678,0.0865016315134293
22.685967999999995,4.859630706531597,0.0863591600961316
22.688356,4.85804981052363,0.0861890475179928
22.690736,4.858471015262079,0.0859941005128794
22.693136,4.857681515187031,0.0858248882565982
22.69552,4.859033885485259,0.085622931006615
22.6979,4.864669996530041,0.0853560554883638
22.700308,4.868583546082126,0.0850927394970671
22.702692,4.872125008581876,0.084795696499085
22.705076,4.875946010335346,0.0844806360650338
22.707472,4.877904680969258,0.0841785879665444
22.70986,4.8812138260435285,0.083840821910178
22.71224,4.883591805558022,0.0835112613299964
22.71464,4.884479541005296,0.0832260492654734
22.717024,4.884995189400231,0.0829120266569452
22.719408,4.886861312235527,0.0825625913866365
22.721804,4.892731636563655,0.0821701137645591
22.724192,4.898182652011203,0.0818116436476099
22.726572,4.907358329697864,0.0814313028694003
22.728968,4.920026352198161,0.0809896051684505
22.731356,4.934416936191155,0.0805460564560577
22.733752,4.946386110557152,0.08014968122355
22.736152,4.955841327497534,0.0797567324947119
22.73854,4.967578184438054,0.0793260140635667
22.74092,4.981177372498131,0.0788844255185421
22.743316,4.994776560558206,0.0784462270476906
22.745704,5.004231777498588,0.0780588037982109
22.748088,5.017830965558663,0.0776242088648576
22.750484,5.035154815857853,0.077167354040541
22.752872,5.048986321343405,0.0767698416142689
22.755256,5.0657510931351535,0.0763473017357709
22.757652,5.082376095300042,0.0759357736360227
22.76004,5.098069931905151,0.0755302257908359
22.762424,5.117116343697036,0.0750750552107828
22.76482,5.132810180302147,0.0746718497828326
22.767208,5.147293312093757,0.0742914808226117
22.769588,5.158703407952313,0.0739477768252556
22.771988,5.162244870452061,0.0736695297490479
22.774376,5.161642361832115,0.0734388192983574
22.776756,5.156476573211895,0.0732803286012067
22.779156,5.149448453472118,0.0731313317405504
22.781544,5.146704074478895,0.072928092426358
22.783924,5.145961796232089,0.0727076981143187
22.78632,5.143217417238868,0.0725052542400733
22.788708,5.140612807872507,0.0722949008429302
22.791092,5.135074932199948,0.0721060548322354
22.793488,5.1321907835798655,0.0719123101449159
22.795876,5.126885225332785,0.0717621776145157
22.79826,5.1217194367125645,0.0716037336858261
22.800656,5.120418079958319,0.0714193347073072
22.803044,5.117254392084516,0.0712433900428317
22.805428,5.113950934583852,0.0710759650698528
22.807824,5.112370038575885,0.0709088896518158
22.810212,5.107576337008003,0.0707796512494676
22.812596,5.104644966559676,0.0706419493572974
22.814996,5.101993135365071,0.0704866799996215
22.817384,5.100412239357104,0.0703191795924823
22.819764,5.105768811148167,0.0700971299097569
22.82216,5.11047375663317,0.0698608508304366
22.824548,5.114527075812116,0.0696089246284093
22.826932,5.119511560550841,0.0693527083228548
22.829328,5.124356275662705,0.0691078976052683
22.831716,5.12077327890832,0.0689536449780479
22.8341,5.119844009206411,0.0687965461418342
22.836496,5.115981473198307,0.0686594550294912
22.838884,5.115843599429316,0.0685070147349065
22.841268,5.113703624913907,0.0683708487090272
22.843664,5.111563650398501,0.0682346826831478
22.846056,5.109144136629372,0.0681161455433993
22.84844,5.108075097300603,0.0679689752272557
22.850848,5.109799554651168,0.0678114165565963
22.853232,5.112455177561512,0.0676507606899927
22.855612,5.112037764538801,0.0675173808780092
22.858016,5.110828955583171,0.0673783632047009
22.860404,5.112181325881399,0.0671906972409142
22.862784,5.116466962485824,0.0669852057835917
22.86518,5.117819332784052,0.0667981236108944
22.867568,5.1213135734555575,0.0665905798171395
22.869948,5.1302550378588725,0.0663737648675505
22.872352,5.146785596367274,0.0661257818524262
22.874736,5.164387090062314,0.0658680960003969
22.877116,5.179986483010936,0.0656265575493813
22.87952,5.2069468541320045,0.0652875061302137
22.881908,5.230042793387097,0.0649688624896372
22.884288,5.258865495627721,0.0646275466960768
22.886688,5.284103305256092,0.0642910195849962
22.889076,5.31083135895168,0.0639194152996881
22.891456,5.339841052647406,0.0635211256429559
22.893851999999995,5.367919580783354,0.0631274810882973
22.89624,5.394787404105804,0.062757005898694
22.898624,5.4216552274282535,0.0623915376512849
22.901019999999995,5.45066492112398,0.0620103691415733
22.903404,5.483027190006482,0.0615906739078521
22.905788,5.520324825941597,0.0611464588445653
22.908184,5.553059181876437,0.0607611391984548
22.910568,5.583651667438,0.0603996804736563
22.912952,5.616106484119119,0.0600333357830541
22.915352,5.638271257814434,0.0597428738549986
22.91774,5.655128577404799,0.059452342042503
22.92012,5.664257033263218,0.0591954966454157
22.92252,5.673245719494776,0.0589478243529146
22.924908,5.678649513114081,0.0586991533956122
22.927292,5.679909335613692,0.058484243495529
22.929688,5.686523834046496,0.0582233001632182
22.932076,5.685409468747353,0.0579918027216392
22.93446,5.688159535314183,0.0577462414749038
22.936856,5.69305147225429,0.057484161638964
22.939244,5.694078977328425,0.0572362386236983
22.941624,5.696456956842918,0.0569653454410639
22.94402,5.697112374864714,0.0566901226305667
22.946408,5.690830325087482,0.0564457648611928
22.948788,5.678541973070998,0.056231793677286
22.951188,5.668395491427792,0.0560010458093208
22.953576,5.655315743478391,0.0557817815680634
22.955956,5.648521837021962,0.0555197395683611
22.958356,5.64293863537903,0.0552424437028474
22.960744,5.634422167429904,0.0549743054977461
22.963124,5.632331310600608,0.0546529410201144
22.96552,5.633685576756705,0.0543422906505493
22.967912,5.640394518845995,0.0539899037081049
22.970292,5.6444497338828095,0.053633003369879
22.972692,5.6540919422782965,0.0532699175087984
22.97508,5.659729949180948,0.0529244193724943
22.977464,5.660013280150406,0.0526211644088568
22.979868,5.662438481493143,0.0522985876833871
22.982251999999995,5.659788546156406,0.0520019605289517
22.984632,5.653786035632894,0.0517376483755915
