Time,Force,Position
23.935332,2.4483651808548705,0.1773275784153875
23.93772,2.4844407368292707,0.1766316253997643
23.9401,2.519447253474902,0.1757590128144998
23.942496,2.546027954112154,0.1751381158715803
23.944884,2.568047270607001,0.1745346936910034
23.947268,2.579079591839612,0.1743392769550884
23.949664,2.5862021552358745,0.1741563512089206
23.952052,2.595374041206797,0.1737730116774599
23.954432,2.6051975534837783,0.1733992554617313
23.956832,2.6224703902389863,0.1727099486743802
23.959216,2.6474720907261404,0.1716631148160937
23.961596,2.67582636640007,0.1704032717198597
23.964,2.701666684648386,0.1692104767889683
23.966388,2.7304402692028966,0.167878884363421
23.968768,2.759213853757408,0.1665587401669621
23.971164,2.7906411653643937,0.1651369337753989
23.973552,2.830216649583908,0.1632807509412666
23.975932,2.8635062923104493,0.1617965793759757
23.978328,2.8930712727978785,0.1604857296296724
23.980716,2.9155590158594182,0.1595408808029937
23.983112,2.9416316515332115,0.158495432821671
23.985508,2.9638398553410306,0.1576309382649481
23.987896,2.9772482602302643,0.1571680052346079
23.990276,2.994149009933134,0.1565093309369872
23.992672,3.0111895292628645,0.1558382246327921
23.99506,3.033864263779507,0.1548462683630381
23.997444,3.0517434008703983,0.1540594589236687
23.99984,3.0649667101623983,0.1534621445880056
24.002228,3.076467457961701,0.15291979241165
24.004608,3.0851747090816706,0.1524924943310102
24.007012,3.093230333895581,0.1520799913711793
24.0094,3.1008666498289115,0.1517251643255373
24.01178,3.111296462441577,0.1512762098936304
24.014176,3.1189327783749063,0.1509213828479883
24.016564,3.1312249221071284,0.1504303578999136
24.018948,3.14323752658563,0.1499787924726637
24.02134,3.1493835984517404,0.1497403260259233
24.023728,3.1582306191985694,0.1493391960109986
24.026108,3.16684532251992,0.1488770571319755
24.028504,3.180674932147604,0.1481964436221657
24.030896,3.1918508147228133,0.1476032347200633
24.033276,3.203446006178603,0.1469542263497383
24.035672,3.216531441701612,0.1461911715664349
24.03806,3.2245417405451486,0.1456308849827227
24.040456,3.2306897082691286,0.1451289755097553
24.042852,3.234416266366111,0.1447580700621705
24.045236,3.241076090769288,0.1442825566537598
24.04762,3.25132080778472,0.1437148052290724
24.050012,3.2614257551732897,0.143163326379125
24.0524,3.2713909329350006,0.1426345133119004
24.05478,3.2769326003232964,0.1423068241501115
24.083464,3.246818020617772,0.1420467736948129
24.08586,3.2498438347225846,0.1420229633676313
24.088244,3.255802915133592,0.1419043209700265
24.090628,3.26204153479832,0.1417529205264213
24.09542,3.2672092192764093,0.1416455173613581
24.0978,3.2684199240899083,0.1415873351931095
24.100196,3.2705617944631853,0.1415045665874285
24.102584,3.2716327296498235,0.141462376362537
24.104968,3.2820153204342453,0.1411694534268111
24.107364,3.299195609390836,0.1406722213025618
24.109752,3.3160963590937063,0.1402048909063457
24.112136,3.335930375102771,0.1396242239817189
24.114532,3.3553450822312554,0.1390997743500822
24.116916,3.367822321560711,0.13879700351991
24.1193,3.376295359397333,0.1386345612353169
24.121696,3.382906066114398,0.1385218893961203
24.12886,3.3935663002946708,0.1384335903516163
24.131248,3.3972437407055414,0.1384176076139072
24.133632,3.403574908168886,0.1383412148391527
24.136028,3.4086953708187324,0.1383235229700209
24.138416,3.415678164588136,0.1382577419166523
24.140796,3.424383519850234,0.1381603992313565
24.143192,3.4366737677245864,0.1379788104000875
24.14558,3.448544706718358,0.1378471761786562
24.147964,3.459624249779212,0.1377281711308859
24.157528,3.4906737867602526,0.1375405316016028
24.15992,3.5015210123956284,0.1373860825200563
24.1623,3.511716611724947,0.1372254481044789
24.164696,3.531131318853431,0.1367771559207769
24.16708,3.553619061914971,0.1362356716188975
24.169476,3.578807753857228,0.1355619269957859
24.171872,3.598409452440816,0.1350158582211901
24.17426,3.623086287703877,0.134311614255553
24.176644,3.648973827780436,0.1335587988314595
24.17904,3.675420446364434,0.1327715923118641
24.181424,3.7033573090156544,0.1319265048817047
24.183804,3.729711379801037,0.1310951536038007
24.186208,3.752201018720446,0.1303632368185478
24.188596,3.7759013624533537,0.1296005113896448
24.190976,3.8006726413729,0.1288144797583657
24.193372,3.822790193239973,0.1280706020027201
24.19576,3.839972378054432,0.1274474265241124
24.19814,3.851939656562559,0.1269844140318977
24.200536,3.86805090619038,0.1263939855082577
24.315228,3.680040602100787,0.1257847344550856
24.32,3.684788977698296,0.1257550231971209
24.322396,3.69261038922886,0.1256406775401102
24.324784,3.6993608655727854,0.1255601559551734
24.327164,3.711326248223043,0.1253300387950122
24.32956,3.72315186124644,0.1251141089804232
24.331948,3.74005261094931,0.1247657137312927
24.334332,3.7563017343461222,0.1244103948086796
24.336728,3.777765764049267,0.1239117175602535
24.339116,3.803094225618385,0.1233264490230481
24.3415,3.828562456814364,0.122723289650706
24.343896,3.853006974651947,0.122085585958062
24.346284,3.8743784565564745,0.1215387854582421
24.348664,3.895098312154944,0.1209981315908378
24.351064,3.913443979954659,0.1204671682004144
24.353452,3.9312777910751766,0.1199170502355145
24.355836,3.948599745516496,0.1193592307980436
24.358236,3.9624765769724233,0.1188424244399469
24.360624,3.980776918801765,0.1182014121948397
24.363004,4.001219131004383,0.1175085514048237
24.3654,4.018728076900807,0.1168816913324937
24.367788,4.039589597984006,0.116160307638806
24.370184,4.0590080968282285,0.1154405006118743
24.37258,4.076564264552895,0.1147490926905437
24.374964,4.092397870784865,0.1140831140277071
24.377348,4.1094421818303335,0.1133805487635189
24.379752,4.124624161756246,0.1127197711122065
24.38214,4.139806141682158,0.1120603470758538
24.38452,4.150983920115236,0.1114901575828734
24.386916,4.1584370363092,0.1109788847923702
24.389304,4.163748282129888,0.1105157055316089
24.391684,4.167429514256497,0.11012837372083
24.39408,4.172321451196605,0.109703804155075
24.396468,4.172929647390157,0.1093858297660666
24.398852,4.178193671382602,0.1089975449843332
24.401248,4.183317925748187,0.108622161230624
24.403636,4.184018669740357,0.1083639611017248
24.406016,4.184719413732528,0.1081035318445874
24.408412,4.182347121791643,0.1079111388788819
24.4108,4.175970628357924,0.1077978533210245
24.41318,4.171596235670623,0.1076447856035878
24.415584,4.164288576677126,0.1075438698025141
24.417968,4.156561608803047,0.1074779756056437
24.420348,4.151628137608306,0.1073716138681377
24.422752,4.148556997533119,0.107238702736152
24.42514,4.14734818857749,0.1070808300717199
24.42752,4.146139379621861,0.1069236545620326
24.429916,4.14586173622601,0.1067543711389656
24.432304,4.1442336183898,0.1066313229053143
24.434684,4.146050623538982,0.1064808248085049
24.437084,4.15694696686047,0.1061626628010556
24.439472,4.1703572676075735,0.1058302967257671
24.441852,4.184558964287595,0.1055017902190485
24.444248,4.20290463208731,0.1050908657476472
24.446636,4.216454702461274,0.1047538992506238
24.449031999999995,4.228654298394878,0.1044615849360675
24.451428,4.241645290261401,0.1041640722381312
24.453816,4.261294210673231,0.1037741706270079
24.456196,4.277031477390845,0.1035066780884108
24.458592,4.293560140041378,0.1032344148057519
24.46098,4.308878097878411,0.1029999076092762
24.463364,4.3265702435142,0.1027639531848946
24.46576,4.345053785082906,0.1025275097110085
24.477692,4.39523848993871,0.1023783474793049
24.480092,4.40953083855948,0.1022998220804939
24.49204,4.452405988563918,0.1022656057503306
24.494436,4.461902739758934,0.1022639769017999
24.496824,4.475962770954227,0.1021572822466085
24.499208,4.493515146963154,0.1019669930736594
24.501604,4.507203091106108,0.1018341684033663
24.503988,4.530808991182531,0.1014974672239235
24.506372,4.557767466445728,0.101091511858027
24.508768,4.585657107268704,0.1006768159923301
24.511152,4.611824186598983,0.1002741316539683
24.513536,4.636548243690287,0.0998615072811075
24.515936,4.664624875968366,0.0993761820075562
24.518324,4.694191752313664,0.0988379189248296
24.520704,4.72590049903224,0.098258656307087
24.5231,4.755374827578921,0.0976705711205634
24.525488,4.7841975298195445,0.0970718852355697
24.527868,4.808224634634415,0.0965452568405668
24.530263999999995,4.829038933889372,0.0960813569378965
24.532652,4.848549980532211,0.0955975538229861
24.535036,4.868480336055632,0.0950892098171602
24.537431999999995,4.89083210120605,0.0945233214050111
24.53982,4.911740844117492,0.0939437898129812
24.542204,4.925851888856766,0.093452257162748
24.5446,4.938891998409401,0.0929886005681029
24.546988,4.949930007215619,0.0925564875618166
24.549384,4.960176620088919,0.0921254079802014
24.551784,4.962554599603411,0.0917963674804665
24.554172,4.963070247998347,0.0914858445332483
24.556552,4.963213809340946,0.0911465460156388
24.558948,4.963776679564125,0.0907792212805679
24.561336,4.967272816093501,0.0903801128507941
24.563716,4.973981758182791,0.089935559633444
24.566116,4.983763736205136,0.0894545726721403
24.568504,4.991031756801866,0.0889775948267129
24.570884,4.996297676652181,0.0885215463057022
24.573284,5.0064989635551065,0.0880150728938009
24.575672,5.01176488340542,0.0875589685907054
24.578052,5.018381277696093,0.0870676055346763
24.580456,5.023647197546407,0.0866091439679169
24.58284,5.025700311836806,0.0862004173019416
24.58522,5.025611555753928,0.085825105654449
24.587616,5.027105591536886,0.0854528151342667
24.590004,5.033814533626176,0.085007580462235
24.592384,5.032235533476078,0.0846725853230539
24.59478,5.029445828512482,0.0843630390288154
24.597168,5.021580986869412,0.0841157498343162
24.599548,5.015438706719041,0.0838623601599904
24.601944,5.0105996791807845,0.083632930058397
24.604332,5.009205774627921,0.0833954294418905
24.606728,5.007532330821337,0.0831766841566918
24.609124,5.003577247014615,0.0830001516501993
24.611512,4.9941277176478405,0.0829126367542111
24.613892,4.978532116414956,0.082900656460583
24.616296,4.966241868540604,0.082889094474082
24.621064,4.949622553949322,0.0828326615916282
24.62346,4.946224652792174,0.0827829286697829
24.625848,4.942267673127583,0.0827692861566043
24.628228,4.940452563836271,0.0827247579836752
24.630628,4.941430951224292,0.0826611891511822
24.633012,4.943340504172092,0.0825912604513335
24.635396,4.947671466746889,0.0824733550014654
24.637792,4.949441250067828,0.0824133884663018
24.64018,4.960569910814794,0.0822346124780373
24.642564,4.972769506748398,0.0820404155028795
24.64496,4.989764700107754,0.0818027305864989
24.647348,5.00662012384025,0.0815745768615424
24.649728,5.021101359773991,0.0813387695929792
24.652128,5.030786998281981,0.0811453609422107
24.654516,5.039261931976473,0.0809757260392357
24.656896,5.045874534551408,0.0808175724002319
24.659296,5.053837611566702,0.0806256961636623
24.661684,5.068598386754164,0.0803736761197592
24.664068,5.0799140389562325,0.0801285075689534
24.666468,5.082569661866577,0.0799566607060458
24.668856,5.087367155150198,0.0797529738130511
24.67124,5.08657765507515,0.0795864980240919
24.673636,5.088349334253959,0.0793638073746727
24.676028,5.089841474179046,0.0791593233076282
24.678408,5.093475484477411,0.0789274743655278
24.680812,5.096038559589139,0.0787099362689419
24.683196,5.093246958767672,0.0785653558375334
24.685576,5.092085371640286,0.0783708773690058
24.68798,5.085569108579707,0.0782488240527125
24.690368,5.080263550332626,0.078103506170799
24.692748,5.076588005779627,0.0779088643140745
24.695144,5.071189899733929,0.0777154592406892
24.697528,5.064720858501594,0.0775352504411515
24.699912,5.059182982829038,0.0773493134425737
24.702316,5.055275120850558,0.0771133081094508
24.704704,5.055650999618634,0.0768209421181326
24.707084,5.05602687838671,0.0765289243483033
24.709488,5.051746929355893,0.0762640644501376
24.711872,5.050120707377552,0.0759925048816355
24.714256,5.052498686892045,0.0756812632125979
24.71666,5.059020637526232,0.0753257975597695
24.719048,5.070477955213031,0.0749300918756935
24.721428,5.075789201033719,0.0745978991213186
24.723824,5.081379986108127,0.0742486017145324
24.726212,5.078962368196868,0.0739715303968699
24.728592,5.07682428953933,0.0736759936312006
24.730992,5.082834383494318,0.0733004497860381
24.73338,5.087354233382087,0.0729658755239853
24.73576,5.095086888829774,0.0725908388826717
24.738164,5.10160883946396,0.0722393764229818
24.740552,5.105290071590569,0.0719581065840601
24.742932,5.112184109277093,0.0716378107416063
24.745328,5.1238737443893685,0.0712883873818951
24.747716,5.135563379501645,0.0709395473479027
24.750096,5.147764871293119,0.0706144001551111
24.752492,5.157684723084456,0.0703258484997026
24.75488,5.167744344502653,0.0700300029728863
24.75726,5.175662095547573,0.0697573898593007
24.759664,5.184650781779131,0.0694746030010048
24.762052,5.198574835063301,0.0691602582418173
24.764432,5.206073277227639,0.0689193202747064
24.766828,5.211709388272422,0.0686885815773169
24.769216,5.223072262302735,0.068427106772413
24.771596,5.238439337825881,0.0681388619716124
24.773992,5.260743881148056,0.0677996256095192
24.77638,5.286912856336204,0.0674420647399754
24.77876,5.308146464471741,0.0671240731228909
24.78116,5.328448907047498,0.0668086851940504
24.783548,5.347680414436618,0.0665064730749984
24.785928,5.368774252945294,0.0661999168406502
24.788324,5.395082997760303,0.065847397903108
24.790712,5.418830563321454,0.0655426698406222
24.793092,5.442717898509465,0.0652360351347814
24.795496,5.464463363324199,0.0649499579525616
24.797884,5.485277662579156,0.0646682067950882
24.800264,5.503950091460835,0.0644070780072154
24.802664,5.522854837767991,0.0641835119513328
24.805048,5.543621915194704,0.0639520568552687
24.807428,5.56131595668836,0.063746546479091
24.809828,5.570861825569489,0.0636052485229375
24.812212,5.583900039264256,0.0634149149935378
24.814596,5.595448008891802,0.0632599827624461
24.816992,5.607927144079127,0.0631043109778663
24.81938,5.6130495025868425,0.0630153037452682
24.828932,5.5875831672487335,0.063006704186709
24.831332,5.582555252397504,0.0629909701873357
24.84088,5.533065603960263,0.0629819147015483
24.843264,5.52035604720533,0.0629481555667369
24.845668,5.512861396756729,0.0628716239138219
24.848056,5.508719321494905,0.0627575904076688
24.850436,5.506207259927159,0.0626039065931266
24.852832,5.506908003919329,0.0624213139456377
24.85522,5.5106817838445545,0.0622176589515152
24.8576,5.517528599702835,0.061991319324451
24.86,5.527029142613592,0.0617682146259483
24.862384,5.536948994404928,0.0615227181239298
24.864768,5.541421622464457,0.061282414443493
24.867163999999995,5.552459631270673,0.0609780445920971
24.869552,5.5729962871297785,0.06059770880512
24.871932,5.600330641161051,0.0601902574822414
24.874331999999995,5.631948735938879,0.0597460842694806
24.876716,5.666639866649763,0.0592870839456851
24.8791,5.697326795867811,0.0588539443859863
24.881504,5.730807221765195,0.0584183772616374
24.883892,5.7656381221029385,0.0579609255480247
24.886272,5.798187382440544,0.05752782896837
24.888672,5.835672009830762,0.0570689917926103
24.89106,5.868872896474426,0.0566513420139705
24.89344,5.890852574572507,0.0563030916066575
24.895836,5.916836454163421,0.0559412255237734
24.898224,5.9388161322615005,0.0556009410366753
24.900608,5.959724875172943,0.0552726488261796
24.903004,5.97784012140505,0.0549499602312851
24.905392,5.997026302823796,0.0546203863968711
24.907772,6.016352253869401,0.0542886163998117
24.910168,6.033676104168591,0.0539658869537855
24.912556,6.055655782266672,0.0536384983208419
24.91494,6.07228078443156,0.0533533955552819
24.917336,6.084482276223034,0.0531110736539392
24.91972,6.088954904282561,0.0528897781113355
24.922115999999995,6.090214726782172,0.0526922458046693
24.924516,6.0831866070423946,0.0525419603743041
24.926904,6.076018717675759,0.0523981094950135
24.929284,6.065777792376067,0.0522704519999662
24.931684,6.057911054875128,0.0521614285774254
24.934072,6.055398993307382,0.0520148629342307
24.936452,6.052095535806719,0.0518623396745978
24.938848,6.047441603865697,0.0517303391080289
24.941236,6.047862808604148,0.0515728050434348
24.94362,6.041718632595907,0.0514683226273846
24.946016,6.040509823640277,0.051347179431057
24.9484,6.041163345804205,0.0512257610973225
24.950784,6.042608263901049,0.0511105622773699
24.95318,6.042051081251477,0.0510032357428375
24.955568,6.033345725989377,0.0509333845950817
24.957948,6.026502701846835,0.0508622776076105
24.960344,6.0197994473311525,0.0507845141203921
24.962731999999995,6.016029459121666,0.0506986648899414
24.965116,6.012259470912179,0.0506130288430709
24.967512,6.014356015315081,0.0505115279460942
24.9699,6.019525595651039,0.0503958186071017
24.972296,6.030841247853109,0.0502502536965952
24.974692,6.043367604868677,0.0500908701066865
24.97708,6.056313270764825,0.0499110797656893
25.172996,3.043913408088427,0.0498961425306882
25.175392,3.003081893085041,0.0498914485710734
25.17778,2.9631815436414333,0.0498866148241869
25.180164,2.927145626063799,0.0498689732720874
