Time,Force,Position
6.264904000000001,0.02101836929803081,0.0
6.268991999999997,0.02101836929803081,0.0
6.273075999999996,0.02101836929803081,0.0
6.277163999999999,0.017755212909666633,0.0
6.281251999999995,0.015721448096118897,0.0
6.285343999999995,0.014806349957452725,0.0
6.289431999999998,0.014806349957452728,0.0
6.293527999999995,0.014806349957452728,0.0
6.297619999999995,0.014806349957452728,0.0
6.301711999999995,0.011199601193751086,0.0
6.305803999999995,0.007592852430049446,0.0
6.309835999999997,0.0049940454412945,0.0
6.313927999999997,0.0014980215775277292,0.0
6.318019999999997,0.0014980215775277292,0.0
6.322099999999999,0.0014980215775277292,0.0
6.326191999999999,0.003974685990814951,0.0
6.330283999999999,0.0055362522654360015,0.0
6.334316000000001,0.008216485214938618,0.0
6.338355999999997,0.014392742028208004,0.0
6.342444,0.021576940616424085,0.0
6.346527999999999,0.026855980554681646,0.0
6.350611999999998,0.03011913694304582,0.0
6.354700000000001,0.03528745198136851,0.0
6.358731999999996,0.042360925669649725,0.0
6.3627600000000015,0.04752924070797241,0.0
6.366791999999997,0.054602714396253624,0.0
6.370875999999996,0.060557521409653266,0.0
6.374972,0.06752027019799961,0.0
6.3790520000000015,0.0752695109614229,0.0
6.383139999999997,0.08481318547486984,0.0
6.387167999999996,0.09424613508838191,0.0
6.3912520000000015,0.10367908470189396,0.0
6.395339999999997,0.1103096587904357,0.0
6.399423999999996,0.11582156620409585,0.0
6.403511999999999,0.12323863226771453,0.0
6.407592000000001,0.1254873832930105,0.0
6.411623999999996,0.1287440760932532,0.0
6.415659999999996,0.13099282711854918,0.0
6.4197440000000014,0.1305499275188097,0.0
6.423828,0.12909908614412352,0.0
6.427915999999996,0.1303398953944728,0.0
6.432007999999996,0.13561247174460886,0.0
6.436043999999995,0.14009855611966798,0.0
6.44014,0.14178226496975674,0.0
6.444232,0.14537113246980404,0.0
6.4483279999999965,0.14784133329496976,0.0
6.452424000000001,0.1486278252700467,0.0
6.456516000000001,0.1465012168202184,0.0
6.460552,0.14347739149537836,0.0
6.464635999999999,0.1386591324205146,0.0
6.468727999999999,0.13305438137057396,0.0
6.472815999999995,0.12409363029598862,0.0
6.4769000000000005,0.12085977284681164,0.0
6.480983999999999,0.12256631704796613,0.0
6.485067999999998,0.12507077089973043,0.0
6.489159999999998,0.13174055210228203,0.0
6.493248000000001,0.13931896785537834,0.0
6.497340000000001,0.1513948856590666,0.0
6.501427999999997,0.16662818903859555,0.0
6.505476000000002,0.18659186194411906,0.0
6.509568000000002,0.21308033812566077,0.0
6.513607999999998,0.24161895088369442,0.0
6.517699999999998,0.2769266520686817,0.008706228335111331
6.521788000000001,0.3231459336803444,0.017114061771886305
6.525880000000001,0.37937957884367046,0.02531545897894253
6.529964,0.4402442863085891,0.033766592762646014
6.534051999999996,0.5149336746250882,0.041946963549625585
6.538139999999999,0.6008668180680673,0.05000277190269315
6.542231999999999,0.6943441242375441,0.05808681321768281
6.546323999999999,0.7952548682335838,0.0661951140830614
6.550407999999997,0.906179975781287,0.07425763114380109
6.554504000000001,1.0318155633800496,0.08211540978683343
6.558583999999996,1.158924827704564,0.09005507924367061
6.562671999999999,1.2877292185547005,0.09799455132998514
6.566755999999998,1.4175529688553161,0.1060055626586471
6.570791999999997,1.5565703377059197,0.1137381863211581
6.574875999999996,1.70041738330692,0.12141345873144666
6.578967999999996,1.8436000795083114,0.1291405637708208
6.583051999999995,1.9892529765348679,0.13684276590674302
6.587139999999998,2.1335543394111407,0.1445594095255171
6.591223999999997,2.2761605757617915,0.15217467991269273
6.595299999999995,2.420538410511401,0.15966593044526586
6.599384000000001,2.556131273284163,0.15847648150311158
6.603468,2.6805911058303797,0.15764049348157433
6.607543999999997,2.794028633049986,0.15705192205182503
6.611587999999998,2.904629531718024,0.15614996867430384
6.6156719999999964,3.003765225459713,0.15557699235199768
6.619707999999996,3.0940166400001523,0.15516075001170623
6.623795999999999,3.1841230766140574,0.15450079208181386
6.627887999999999,3.270163493101577,0.15374891715550693
6.631931999999999,3.3497784135374813,0.15297354934755955
6.635959999999997,3.418825345922048,0.15239355622141182
6.640039999999999,3.4859442843055892,0.15169089876186312
6.644120000000001,3.5481114033632672,0.15100558725382388
6.648195999999999,3.606002470170222,0.1503143926845097
6.6522760000000005,3.65087818345174,0.1500138479943819
6.656320000000001,3.6888969187574356,0.1497974649520335
6.660404,3.7255527022373136,0.14948619291586282
6.664504000000001,3.757256666391327,0.14919009933913882
6.668588,3.7882734457946654,0.1488119130931056
6.672688000000001,3.812555389797649,0.14858353194182608
6.676724,3.8289838317253957,0.14855119016328192
6.680819999999997,3.8463094905281547,0.14849331952435388
6.684916000000001,3.8685641333057115,0.14826358465790984
6.689011999999998,3.894518368483251,0.14792717569972275
6.693103999999998,3.920018286385518,0.14757390121342676
6.697199999999995,3.9461825536873945,0.1471373679139748
6.701295999999999,3.973686937464022,0.14662721094314496
6.705391999999996,3.9930056444656086,0.1463531730986423
6.709483999999996,4.0100756004418985,0.14610142384978708
6.71358,4.023556688918142,0.14593945903762767
6.717611999999996,4.038267168969201,0.14572146502934918
6.721699999999999,4.050728897994964,0.14551974333651924
6.725788000000001,4.062736309745455,0.14528864182024304
6.729880000000001,4.077423954445449,0.14491611572218194
6.733967999999997,4.096364816045099,0.14438089610086444
6.738059999999997,4.115194952744815,0.1438547101728767
6.742151999999997,4.131665613519299,0.14335962021647486
6.746248000000001,4.149144216068731,0.14283628016123423
6.750343999999998,4.164717659968204,0.14237362262042502
6.754439999999995,4.1823069874175705,0.1418438783475986
6.758531999999995,4.2047145739418,0.14117550841961307
6.762619999999998,4.227797927541172,0.14051214871023904
6.766703999999997,4.247070963840626,0.13996558720610025
6.770795999999997,4.263541624615111,0.13949624033839034
6.774879999999996,4.276767010264886,0.13914875841913607
6.778976,4.2914546549648795,0.13880141395841172
6.783068,4.305245082789861,0.13847748302170185
6.787155999999996,4.320719219464933,0.13812642283082874
6.791243999999999,4.332948081015294,0.1378913770551384
6.795335999999999,4.347757868290755,0.13761089467049437
6.799423999999995,4.360441047116389,0.13740726282633917
6.803511999999998,4.3764916436422,0.13715667914976024
6.807603999999998,4.395233890793046,0.13685512425566723
6.811687999999997,4.415438396994111,0.13656192695927233
6.815779999999997,4.432508352970402,0.13636864042297897
6.819876000000001,4.451029150321378,0.13610091061374213
6.823963999999997,4.4693284978724845,0.13585603183523914
6.828055999999997,4.487849295223461,0.1355944256377342
6.832152000000001,4.505694325499296,0.13532901695891353
6.836244000000001,4.523650080675066,0.13505532241721285
6.840339999999998,4.536222534600763,0.13488629824119325
6.844435999999995,4.55114304677616,0.13463145081093097
6.848527999999995,4.565952834051621,0.1343872755255295
6.852623999999999,4.583897171551857,0.13405264031285777
6.856711999999995,4.602960175726976,0.13367665105096393
6.860803999999995,4.624149788351922,0.13324396267307506
6.864899999999999,4.647576734326631,0.13274440854466674
6.868991999999999,4.669430696351187,0.13225565672775705
6.873092,4.695427150375464,0.13164734342846082
6.877187999999997,4.717945461799628,0.1310925574285592
6.881284000000001,4.742701106573557,0.13046756693735434
6.885376000000001,4.763867883847437,0.12991402948272074
6.889427999999995,4.779540634971312,0.12946635949519056
6.893515999999998,4.788035651095092,0.12914446932278084
6.897599999999997,4.798092233493493,0.12874211067467187
6.901688,4.808259540791829,0.12833296208045863
6.90578,4.823688006764768,0.12778208733398874
6.909811999999995,4.832614504812756,0.1273554631226127
6.913896000000001,4.841651727760677,0.1269192554091121
6.917988000000001,4.848108024983498,0.1265178598360888
6.922075999999997,4.86297144878123,0.12595522112640936
6.926164,4.8742460050789145,0.1254569510888597
6.930195999999995,4.88405830232638,0.12495491823005656
6.934287999999995,4.885352748099,0.12462493762957876
6.938316,4.8879873103463725,0.12423992018790908
6.942304,4.882436195818702,0.1239967608641003
6.946339999999999,4.874869197741139,0.12380345078817111
6.950384,4.867523649463445,0.1235888537483395
6.954467999999999,4.857597175460651,0.12340611428048949
6.958492,4.8487893681327385,0.12318805724476099
6.962483999999996,4.836171243504908,0.12304667497637246
6.966527999999997,4.822090859826859,0.12290231290054643
6.970571999999997,4.81103430147365,0.12268361089207788
6.974607999999996,4.804009510220228,0.1223644465266928
6.978643999999996,4.797095443866742,0.12203433688511899
6.982679999999995,4.7892841606382435,0.12171826947757335
6.986719999999998,4.771725634360082,0.12161356847293905
6.990772,4.762906409356636,0.12132026470725511
6.994816,4.754087184353191,0.12102647272753608
6.998903999999996,4.750872710399685,0.12063084099083193
7.0029559999999975,4.740148326746281,0.1203741132058972
7.006943999999997,4.7320048688179766,0.12008757081971548
7.011027999999996,4.7256558446396975,0.11977381026882084
7.015031999999998,4.730062005286027,0.11923540102569621
7.019115999999997,4.733570949057344,0.11871263138765485
7.023195999999999,4.745708469203442,0.11802538632827819
7.0272839999999945,4.753359904974481,0.11739905149973441
7.031376000000002,4.765718874920449,0.11669672598441674
7.035404,4.779085786641364,0.11597329507942784
7.0394799999999975,4.797492407237012,0.11514877949257812
7.043563999999996,4.8179149113825535,0.11427843018062118
7.047640000000001,4.841250515953,0.11335485288561944
7.051724,4.865372612498524,0.11243482235557312
7.055755999999995,4.891067692994201,0.1115194875669324
7.059832,4.915533381915061,0.1106464941609566
7.063915999999999,4.939888345935986,0.10978665992740289
7.067951999999998,4.96805362725683,0.10884664864559743
7.072043999999998,4.989274041052981,0.10805439709473667
7.076127999999997,5.012621063298961,0.107218134096115
7.080216,5.028568900744976,0.10649529520881974
7.084308,5.045746129765808,0.10572927240101364
7.088395999999996,5.058547999311515,0.10501018720441488
7.092483999999999,5.072468535532105,0.10426477600861364
7.096571999999995,5.080562870902884,0.10363241897021777
7.100663999999995,5.0905623649236205,0.10297509142242563
7.104755999999995,5.093838441219535,0.10243071074364073
7.108851999999999,5.099806168140486,0.10185104741041913
7.112947999999996,5.09725604358659,0.10140119912025874
7.117044,5.097397569657729,0.10092434787299445
7.121136,5.0923886619542005,0.10055503151828198
7.125231999999997,5.0883876960256185,0.10016745278393514
7.129328000000001,5.084165280297167,0.0997996055460911
7.133364,5.078480605518497,0.09942248775385049
7.137447999999999,5.069317788139713,0.09907222035585764
7.141475999999997,5.063510970785575,0.09864047648922339
7.145567999999997,5.057139111256229,0.0981894592437252
7.149656,5.054012526851593,0.09766791375414145
7.153743999999996,5.05312327579672,0.09708936652957782
7.157831999999999,5.047415765666984,0.09658071286896767
7.161871999999995,5.045518572837164,0.09601629360640089
7.165963999999995,5.043399930207475,0.0954687979081019
7.170059999999999,5.042067779552864,0.09491764026686231
7.174155999999996,5.039949136923176,0.09436753358043368
7.1782520000000005,5.0397356529434445,0.09379229815296729
7.1823440000000005,5.034482460088981,0.09330344989290398
7.1864360000000005,5.034158251209316,0.09273690184186711
7.1905319999999975,5.034055492129519,0.09215076235651253
7.194628000000002,5.038660267224652,0.09150075019670062
7.198723999999999,5.03777101616978,0.09090957051694429
7.202819999999996,5.037324664714647,0.09028015974424919
7.206916,5.0378862550344605,0.08963845891815345
7.211008,5.03385103607928,0.08904160473099733
7.215108000000001,5.0304915841992415,0.08845491794499243
7.219200000000001,5.031053174519056,0.08781193271583046
7.223299999999995,5.0283694897141595,0.0872383473410206
7.227395999999999,5.025464355109393,0.08668150958934227
7.231491999999996,5.019646120079722,0.08616505493429004
7.235583999999996,5.016408810775151,0.08563813877584678
7.239683999999997,5.016981818770497,0.08506497056675323
7.243775999999997,5.019349260515868,0.08448182024695158
7.247875999999998,5.0247405275860775,0.08385509301307086
7.251967999999998,5.034052836856139,0.08317821498481161
7.256067999999999,5.041349262576308,0.08253131940960665
7.260159999999999,5.044724646096625,0.08193453286825932
7.26426,5.051456029641586,0.0812639511921388
7.268355999999997,5.054942138061838,0.08065860553996096
7.272452000000001,5.0621278388820725,0.0800252054589658
7.276547999999998,5.070321481477253,0.07938041261336341
7.280583999999997,5.08400915022244,0.0786953656832206
7.284627999999998,5.102182903342684,0.07799112097339524
7.28866,5.114641180513055,0.07734497008204995
7.292752,5.132704208733365,0.07664962784746063
7.296783999999995,5.149759295178729,0.07596898888010008
7.300812,5.162782614524307,0.07534642265402505
7.304835999999994,5.176138108569688,0.07469808635513443
7.30892,5.190280094590146,0.07405399815215777
7.312956,5.206327239260562,0.07339516650867763
7.316983999999998,5.220690675080891,0.07274249794787624
7.321016,5.2323624602761845,0.07210509860401342
7.325099999999999,5.2403346530714945,0.0714959813060494
7.329183999999998,5.244496528566889,0.07092276500072167
7.333267999999997,5.247650462287335,0.07036669409766298
7.337351999999996,5.2525988297578055,0.06980170186740191
7.341435999999994,5.263373398078087,0.06918105824399362
7.345515999999996,5.274602283673641,0.06859340317619454
7.349603999999999,5.282353026669081,0.06800695891497564
7.353691999999995,5.2873013941395515,0.0674451176960962
7.357783999999995,5.290455327859998,0.06689185105828666
7.361875999999995,5.288901727405517,0.06637394724258615
7.365963999999998,5.2788302754761895,0.06591818048087991
7.369996,5.274474299496737,0.06541662849948783
7.374040000000001,5.269442556442144,0.06490465620275201
7.378079999999997,5.264742988087354,0.06436672714982221
7.38212,5.26295652015747,0.06380321321509855
7.386159999999997,5.261735094402793,0.06326102673600652
7.390208000000001,5.262640277097944,0.06269170104062018
7.394247999999997,5.26041090956832,0.06216234090743945
7.398288000000001,5.257284325163683,0.06163519329198896
7.402324,5.260548983784065,0.061086823431299564
7.406355999999995,5.2654973512545356,0.06054079741263298
7.410387999999997,5.270445718725006,0.059992114145528797
7.414415999999996,5.272480985770572,0.05946621953731755
7.418455999999999,5.27631068656616,0.05893882505914821
7.422435999999998,5.274424911411874,0.05844830887285173
7.426463999999996,5.269847485632552,0.057962975730220044
7.430499999999995,5.272669244653194,0.057445549254880296
7.434528,5.272467178348997,0.05695561113563668
7.438572000000001,5.271932937344994,0.056488549623992336
7.442608,5.27240663811594,0.056009826016049355
7.446643999999999,5.278595814836759,0.055494238063060725
7.450679999999998,5.280642499557858,0.05502630189872235
7.454723999999999,5.281238342904269,0.05460167719424818
7.4587080000000014,5.2832964453009,0.05419902608511523
7.462696000000001,5.284235881022649,0.05381497435059882
7.466723999999999,5.285175316744399,0.05343130283694281
7.4707560000000015,5.282193710266298,0.05307655145517274
7.474787999999997,5.279212103788195,0.05271945248442638
7.478819999999999,5.276009047510223,0.05237729196335134
7.482852000000001,5.264288139757405,0.05207601606751349
7.486879999999999,5.249875581379552,0.05177540153008184
7.490963999999998,5.237036006951852,0.05148751893441076
7.494963999999996,5.226101591174112,0.05118846930091295
7.498995999999998,5.20956242434643,0.05090827644825136
7.503031999999997,5.195714908143782,0.05062392988784562
7.507067999999997,5.181756667041201,0.05034528771535751
7.511156,5.163988108638703,0.05008485969549076
7.515243999999996,5.148013983986229,0.049821207827965036
7.519335999999996,5.12912675890885,0.04957320723820563
7.523423999999999,5.109010142256655,0.04934829043501496
7.5275199999999955,5.087664134029641,0.04914731393509578
7.531616,5.067326067577576,0.048936394386730524
7.535711999999997,5.046090784250498,0.04872490859414416
7.539803999999997,5.0219424004985145,0.04852994342322062
7.543892,4.992865032771734,0.048368291495543385
