Time,Force,Position
15.917008,0.1016851847085513,0.0
15.921039999999998,0.09428599990858696,0.0
15.925072,0.08620542398053334,0.0
15.929108,0.07611458855553356,0.0
15.933148,0.0718499539803442,0.0
15.937179999999998,0.06254561053042135,0.0
15.941271999999998,0.05481425103065241,0.0
15.945311999999998,0.04719361643081834,0.0
15.949407999999998,0.043272574230966435,0.0
15.953443999999998,0.03755147422814368,0.0
15.957479999999997,0.036322082653327245,0.0
15.961507999999998,0.03610063285345749,0.0
15.965532,0.03699784972846932,0.0
15.969615999999998,0.03229031555354045,0.0
15.973699999999996,0.027804231178481336,0.0
15.977739999999995,0.03004156452824447,0.0
15.981768,0.03720788185280619,0.0
15.985799999999998,0.04246904052740941,0.0
15.98988,0.05064329962691784,0.0
15.993963999999998,0.05780961695147958,0.0
15.998043999999997,0.06497593427604131,0.0
16.002124,0.07124503472559121,0.0
16.006207999999997,0.07808480140329555,0.0
16.010295999999997,0.08491894402805265,0.0
16.01438,0.09052369507799332,0.0
16.018468,0.1000494883277859,0.0
16.022555999999998,0.1088995145024364,0.0
16.026652,0.11629869930240073,0.0
16.030739999999998,0.12179272545240653,0.0
16.034827999999997,0.13289712670530024,0.0
16.038915999999997,0.14040703640519944,0.0
16.043007999999997,0.14982210475505714,0.0
16.047088,0.15767560683029383,0.0
16.05118,0.1710231350555363,0.0
16.055267999999998,0.18437066328077878,0.0
16.059355999999998,0.19368642440623446,0.0
16.063443999999997,0.19717598468187975,0.0
16.067528,0.2016734867324717,0.0
16.071624,0.20224994658321174,0.0
16.075719999999997,0.20573950685885706,0.0
16.079811999999997,0.2119207177595378,0.0
16.083903999999997,0.22000708731017707,0.0
16.087995999999997,0.2307851074858518,0.0
16.092128,0.2377528103616095,0.0
16.096216,0.2438232963623554,0.0
16.100299999999997,0.24249459756313696,0.0
16.104391999999997,0.24296033251394217,0.0
16.108483999999997,0.24756855946446898,0.0
16.112579999999998,0.25228751131493066,0.0
16.116671999999998,0.2539826378405523,0.0
16.120767999999998,0.2506380554914404,0.0
16.124903999999997,0.2452775895924352,0.0
16.128995999999997,0.2421544570431931,0.0
16.133083999999997,0.23522100719403397,0.0
16.137172,0.22605022399511168,0.0
16.141316,0.2214762500711834,0.0
16.145404,0.2181430853976044,0.0
16.149487999999998,0.21335907934933923,0.0
16.153575999999997,0.21036950705109775,0.0
16.157663999999997,0.2050318765031582,0.0
16.161752,0.20115650500543772,0.0
16.165844,0.19784617568292442,0.0
16.169932,0.18982831218548227,0.0
16.174024,0.19179055921310506,0.0
16.17812,0.19162619779089957,0.0
16.182212,0.20054473001874717,0.0
16.186304,0.21204418797169544,0.0
16.190396,0.21929042902498713,0.0
16.194491999999997,0.23001481267839125,0.0
16.19858,0.24062847143186047,0.0
16.202672,0.2580762728100869,0.0
16.206764,0.2790022167884257,0.0
16.210904,0.2978015523169361,0.0
16.214992,0.3204112051453637,0.0
16.219079999999998,0.343242307773661,0.0
16.22318,0.3608008340518222,0.0
16.227324,0.38025310130440904,0.0
16.231403999999998,0.3973458926317651,0.0
16.235491999999997,0.41466013375899086,0.0
16.239576,0.4344331580358496,0.0
16.24372,0.4472498971124834,0.0
16.247856,0.4587151020388331,0.0
16.251943999999998,0.47522001583991624,0.0
16.25604,0.48286348579081606,0.0
16.260171999999997,0.4947601726413724,0.0
16.264308,0.4982497329170177,0.0
16.26844,0.4964667168425268,0.0
16.272523999999997,0.4979289758927458,0.0
16.276615999999997,0.4950158754678406,0.0
16.280752,0.4921027750429354,0.0
16.284831999999998,0.4884031826429533,0.0
16.288912,0.4831306062928172,0.0
16.293,0.4820005219424028,0.0
16.297075999999997,0.477281570091941,0.0
16.30116,0.4772701524164082,0.0
16.305244,0.47815595161588714,0.0
16.309323999999997,0.47848812631569176,0.0
16.313408,0.484325744841035,0.0
16.317496,0.4980282831171479,0.0
16.321583999999998,0.512773016194806,0.007107431360849755
16.325671999999997,0.5396701389494887,0.014601932154699324
16.329767999999998,0.5784982015813261,0.02205812379856989
16.333851999999997,0.6256683365902711,0.029514939228086574
16.33794,0.6936194376510215,0.036478139232800876
16.342028,0.7708098279638913,0.043495855349205755
16.346116,0.8657573590037265,0.050470605347461776
16.350203999999998,0.9746517134706099,0.057455607179679236
16.354284,1.0902044314645118,0.06457047911718623
16.358372,1.219814697785397,0.07163721882388423
16.36246,1.361233761407969,0.07868361309840206
16.366552,1.5118921142826613,0.08579645752691693
16.370644,1.672121931109277,0.09293996653849206
16.374731999999998,1.8399073283379233,0.10011081531167404
16.378819999999997,2.018947898368582,0.10731891524240271
16.382915999999998,2.203860339951183,0.11456906751570123
16.387007999999998,2.4019331129857555,0.1217986997249301
16.391099999999998,2.607107149147086,0.12910342297082042
16.395196,2.8183516713091623,0.13638131295235342
16.399231999999998,3.0272481352215403,0.1436738538243563
16.403319999999997,3.238591964608019,0.14380825994552363
16.407407999999997,3.446522705592188,0.1434202885759386
16.411492,3.6418467396240604,0.14305713310601062
16.415575999999998,3.8252398337787783,0.14268983701217608
16.419659999999997,3.985836078331797,0.1429209289877691
16.423748,4.1373037585326315,0.14303275701020096
16.427832,4.272465139381187,0.14321812014806115
16.431867999999998,4.393003929727552,0.14342440661059333
16.435907999999998,4.505200647696809,0.14348006452296985
16.43994,4.602553325364006,0.14360831022940368
16.444032,4.687532163554311,0.14376400912592158
16.448124,4.763493162292363,0.1438044190082788
16.45216,4.830104146878362,0.14377615295348367
16.456248,4.885570683562283,0.14371697610088854
16.460331999999998,4.928098338594102,0.1436621229061711
16.464408,4.959370820823909,0.1435898920494209
16.468496,4.9788230880764965,0.14349590492187142
16.472579999999997,4.991838441601934,0.14326742274268908
16.476668,4.997309632400874,0.14301740074402217
16.480752,4.996477469723667,0.1427593130345112
16.48484,4.9941716303207055,0.14244384588323006
16.488923999999997,4.983237214542964,0.14233013159384036
16.492952,4.972192073865289,0.1422259706793978
16.496983999999998,4.960028266512731,0.14215934337573713
16.50106,4.949769617810134,0.14205057029625165
16.505143999999998,4.93491415983254,0.14203824205708349
16.509227999999997,4.922861077379917,0.14196303552821074
16.513316,4.9133889206523955,0.14184590397823202
16.517352,4.903806039024937,0.1417387909385066
16.521431999999997,4.896017591147505,0.14159649231503302
16.525512,4.8863239846201125,0.14150040546724746
16.529543999999998,4.874503769642893,0.14147120058405113
16.533572,4.861675612890727,0.1414690907791599
16.537608,4.852325598738672,0.14140621832346184
16.541695999999998,4.84947755251157,0.14120073119058363
16.545779999999997,4.852234257334409,0.1408727366537148
16.549819999999997,4.853540120782562,0.14061377841429026
16.553919999999998,4.855521751305858,0.14036092172308556
16.557951999999997,4.859297815579176,0.14007808916594872
16.561984,4.863860371827572,0.1397886714291861
16.566015999999998,4.860580843676263,0.1396916002564671
16.570064,4.864811225224854,0.1394337139085286
16.574095999999997,4.871733257398481,0.1391286776575984
16.578132,4.8824656068720245,0.13873934187985398
16.582164,4.897229723445355,0.1382428536279903
16.586243999999997,4.915250532818926,0.1377096992803591
16.590272,4.934844326142654,0.1371698360941733
16.594299999999997,4.957240494991351,0.13657847006456084
16.598332,4.981541822490006,0.13595078096790877
16.602363999999998,5.005953874888596,0.13531486985300603
16.606447999999997,5.035073461462115,0.1345794712565746
16.610536,5.066208931585527,0.13379387814097848
16.614568,5.095549967958918,0.1330367220443405
16.618595999999997,5.1193969781823006,0.1323848485812521
16.622632,5.140330887980779,0.13181081019644877
16.626728,5.154762829854304,0.131366430721333
16.63082,5.1722185970526695,0.13084871624640435
16.634847999999998,5.186650538926195,0.13040750233870066
16.638892,5.196153496824922,0.13008196401859387
16.642927999999998,5.2069965711984,0.1297042798663714
16.647011999999997,5.22478451309657,0.12916389656151886
16.651044,5.2377541959198775,0.12873124830588487
16.655084,5.248818720093225,0.12834026889948175
16.659115999999997,5.257978085616614,0.1279901592089112
16.663151999999997,5.267923943115081,0.12763943128044686
16.667236,5.280217858863245,0.12721803981692179
16.671272,5.290938790661255,0.12680816129042888
16.675307999999998,5.297960130059283,0.1264639593935582
16.679336,5.3040842525822995,0.12613595900587904
16.683419999999998,5.311105591980328,0.12579630364277394
16.687511999999998,5.315435280753321,0.12549694458121488
16.69154,5.318978477551237,0.1252024561912313
16.695576,5.3261105418492,0.1248571631335936
16.699599999999997,5.336266431472003,0.12444393741144853
16.703628,5.343730670469771,0.12406886453252752
16.70772,5.355902443642468,0.12361114101436484
16.711803999999997,5.368074216815165,0.12315882088989753
16.715884,5.383491265112572,0.12262515882197295
16.71992,5.399916255184925,0.12206548858825916
16.723944,5.418024954107366,0.1214981192421342
16.72798,5.437030869904819,0.12093137386971134
16.732076,5.46006855280206,0.12028591610283176
16.736168,5.479517368199252,0.1196831343036369
16.740264,5.498401141421238,0.11906613241610187
16.744352,5.513474597343308,0.11851539174950168
16.748444,5.523619069290579,0.11806167206129267
16.75254,5.533542091437979,0.11762679387052644
16.756635999999997,5.546378214010285,0.11714140732446891
16.760727999999997,5.557641352632437,0.11666303800155664
16.764816,5.567110057504564,0.11620853859097016
16.768911999999997,5.581175571651688,0.11569326670980662
16.773,5.595916852873953,0.11518679577010785
16.777088,5.607179991496104,0.11471678512806398
16.781176,5.622142722518237,0.11420068376843356
16.785207999999997,5.642820929490249,0.11359857634948776
16.789295999999997,5.6595780942624065,0.1130660932133509
16.793387999999997,5.669722566209677,0.11263119957082815
16.797476,5.678859096381999,0.11221964469419912
16.801555999999998,5.6940432772040035,0.1117002810783288
16.805595999999998,5.700488156751292,0.11132183931350212
16.809628,5.699312401698746,0.11106012543050094
16.813764,5.694326329346283,0.11085665182990531
16.817908,5.695842224918772,0.11056547896525834
16.821955999999997,5.700725538191438,0.110252909871917
16.825988,5.708743401688881,0.10987697558876355
16.830023999999998,5.721800974061057,0.10941180659614695
16.834155999999997,5.732953387783273,0.10897312470210853
16.838288,5.744437976205295,0.108515186314504
16.842375999999998,5.755479665027579,0.108089807507879
16.846411999999997,5.768537237399755,0.10763022735216385
16.850503999999997,5.778903159146895,0.10720471947309947
16.854636,5.787585372043947,0.1067901206490712
16.858767999999998,5.803101727565756,0.10627578351316037
16.862855999999997,5.81402127381257,0.10581898180546565
16.866988,5.82034401078439,0.10541764026919198
16.87108,5.8298012979809855,0.1049583159375865
16.875168,5.846203452702272,0.10438839901916991
16.879255999999998,5.860478998973732,0.1038608738463921
16.883347999999998,5.864220810220451,0.10347632496371488
16.887439999999998,5.877034097441692,0.10294037514847079
16.891527999999997,5.891863268212826,0.10236509624671199
16.895615999999997,5.905795222108948,0.10179650774410828
16.899707999999997,5.917035525380033,0.10125875873377266
16.903799999999997,5.923900469175996,0.10075759398808623
16.907888,5.9317733547469045,0.10024443400007059
16.911976,5.935835923017896,0.09978302745198193
16.916068,5.9432544913135334,0.0992498111726243
16.920164,5.943617467184542,0.09882707806826876
16.924248,5.943415400880344,0.09838666280310175
16.92834,5.940410959051176,0.0979781289777919
16.932432,5.935722808371919,0.09757764940610647
16.936519999999998,5.933271991042425,0.09712984840715976
16.940603999999997,5.92107393066327,0.09681483303221838
16.944695999999997,5.9068599867342195,0.0965295088388476
16.948784,5.892756767705107,0.09623470479994298
16.952872,5.878764273575928,0.09593127626648029
16.956955999999998,5.862866620796789,0.0956497919228751
16.961043999999998,5.8475225925173255,0.09532755734184567
16.965131999999997,5.837107548212661,0.09493363528958844
16.96922,5.82377940348309,0.09457790701365698
16.973315999999997,5.812356417403478,0.09419855893742556
16.977404,5.80384653174877,0.09378105857642129
16.981492,5.794550154118986,0.09336191751808035
16.985576,5.787945427114239,0.09292097072803165
16.989659999999997,5.777419657909638,0.09253124039522385
16.993748,5.76498873005508,0.09216101651076782
16.997832,5.751328410625705,0.09182074913529908
17.001915999999998,5.743605016946075,0.09139810646935785
17.005992,5.738573273891482,0.09095445387622055
17.010075999999998,5.736011731662052,0.0905058643910051
17.014156,5.736141840057659,0.09003849904470113
17.018183999999998,5.7338131653036335,0.08963193888277048
17.022219999999997,5.736302749624469,0.08916572479479011
17.026307999999997,5.743499868120237,0.08865050667219664
17.030396,5.750475536816134,0.0881505837145365
17.034484,5.7560003641373445,0.08769846821696496
17.038567999999998,5.760406524783674,0.08726875528210082
17.042596,5.766385669380156,0.08684338065912194
17.046619999999997,5.776629448551829,0.08640603694746074
17.050659999999997,5.783738677498727,0.08601708623829314
17.054748,5.792642340195648,0.08561843541792878
17.058843999999997,5.799530119342676,0.08524843864575953
17.062872,5.806085723789899,0.08490136749663321
17.066912,5.8089417358371405,0.08458521870798652
17.070947999999998,5.812473514959523,0.08427747818890982
17.075039999999998,5.820602103356899,0.08393257004719264
17.079123999999997,5.828509241954407,0.08360402874013526
17.083212,5.835186988977098,0.08330606328516858
17.087248,5.840856794224842,0.08302277759432768
17.091292,5.845740107497509,0.08273821190378891
17.095323999999998,5.845694436795378,0.08251239102014304
17.099415999999998,5.847775374543074,0.0822524549536892
17.103503999999997,5.85154002114086,0.08199061594451762
17.107595999999997,5.85261301711361,0.08174576431718562
17.111628,5.853575288186425,0.08150800978092884
17.115664,5.852964575309087,0.08126484083209215
17.119752,5.853140354406825,0.08102383377375093
17.123844,5.849395091304712,0.08082655476873069
17.127931999999998,5.840377251852463,0.0806531856062621
17.13196,5.836964163450153,0.08043331702032816
17.135991999999998,5.8316459163978855,0.0802318225964654
17.140072,5.826216944445684,0.08003736520952906
17.144156,5.82527405686854,0.07981864650344024
17.148291999999998,5.82780931189151,0.07958704757720997
17.152375999999997,5.832360450464372,0.07933041975478104
17.156404,5.832990546837382,0.07911667016482143
17.160439999999998,5.831826209460369,0.0789122041861074
17.164523999999997,5.8297646552083435,0.07871239579047101
17.168615999999997,5.828600317831331,0.07850807098308027
17.172691999999998,5.827435980454318,0.07830384022669684
17.176723999999997,5.82526370130236,0.0781100543775376
17.180752,5.8230914221504,0.07791687976213162
17.184787999999998,5.819124709248417,0.07773375356789085
17.18892,5.817738922071536,0.07754442953860265
17.193056,5.818258293544611,0.07733834280943849
17.197135999999997,5.8223665325177345,0.07711416135239635
17.201168,5.8274827132658045,0.07687856613250096
17.205191999999997,5.8393223117386945,0.07658242913397444
17.209224,5.853742835936687,0.07628103963996831
17.213372,5.866590376184527,0.0759770051889965
17.217467999999997,5.880335133307377,0.07567015521302822
17.221563999999997,5.893071948655281,0.07537358478909162
17.225596,5.9006469125529835,0.07508919195574412
17.229688,5.906538167600598,0.0748061015810268
17.233776,5.909627047123242,0.07454270344564458
17.237864,5.914731810195779,0.07425550527730146
17.241951999999998,5.923536165668297,0.07394487403170551
17.246039999999997,5.935253621565722,0.07360850469353103
17.250076,5.9441687019381755,0.07329162842843354
17.254116,5.954878216060653,0.07296863549260486
17.258208,5.971524655932875,0.07258445696855642
17.262296,5.985147270480258,0.07223440989582287
17.266388,5.997761943252693,0.07189575038589371
17.27048,6.0084714573751725,0.07157396188077399
17.274576,6.0182837546226375,0.07125725465839543
17.278612,6.027198834995092,0.07094654586225381
17.282704,6.035327423392468,0.07063350427972341
17.286792,6.0385270278150465,0.07036919974668164
17.290884,6.039821473587667,0.0701193531418404
17.294976,6.03820281893538,0.06989421404354709
17.299068,6.031876630108168,0.06969977884822083
17.303099999999997,6.029692933280675,0.06945546132213148
17.307188,6.028295728428258,0.06921409513863447
17.31128,6.029700899100813,0.06895614604047089
17.315372,6.036932270623179,0.06865137861484362
17.319456,6.044163642145544,0.06834717954212804
17.323544,6.049822029717756,0.06803663910455349
17.327579999999998,6.051780824889985,0.06774589625848897
17.331667999999997,6.055866228512042,0.06742726946159237
17.335752,6.056473489533986,0.06711370164185423
17.339831999999998,6.057977967430944,0.06680017594628669
17.343915999999997,6.06250627065274,0.06645693413676612
17.347948,6.067366748574342,0.06609200180566077
17.352027999999997,6.071662184320736,0.0657085972755857
17.356108,6.07595762006713,0.06532567032078612
17.360196,6.076774913213413,0.06494548658350378
17.364279999999997,6.07860014813464,0.06455686741013007
17.368367999999997,6.081089732455479,0.06412537130545978
17.372404,6.083911491476122,0.06367195766745533
17.376492,6.089535626021734,0.06320425138329909
17.380584,6.101096686317092,0.06268645198679283
17.384663999999997,6.111428355037633,0.06219596799081838
17.388751999999997,6.121870748658109,0.0616979804513729
17.392836,6.13264531697839,0.061184063052659755
17.396924,6.1388230760236775,0.06069121928631698
17.401003999999997,6.144435792893758,0.06017996637861322
17.405079999999998,6.150048509763838,0.05966994754934992
17.409163999999997,6.154874734658841,0.05915177573244107
17.413244,6.160708901328791,0.05862711898986199
17.417332,6.166543067998741,0.05810028715245073
17.421415999999997,6.166993933418619,0.05758414769680135
17.425496,6.163966656238384,0.05706626654183181
17.429579999999998,6.162733812808174,0.05654604499397858
17.433615999999997,6.158587868953059,0.056040397453258825
17.437644,6.152193174072647,0.055509095286853
17.441736,6.145909204092171,0.05496633696785969
17.445828,6.1359256417117125,0.05443378384537873
17.449924,6.122586079306609,0.053942555767239476
17.454016,6.109135792001572,0.05345644761983049
17.458052,6.092207362096421,0.052965283081083045
17.462083999999997,6.0676582975914375,0.05250593011712641
17.466171999999997,6.0379473816362506,0.052033507750002206
17.47026,6.005544815056029,0.05155834340849517
17.474352,5.961489846776186,0.05114273127212358
17.478444,5.912505894521546,0.050753631033048044
17.482532,5.860498116942065,0.050381727221995416
17.486615999999998,5.805577238937678,0.050020986646847926
17.490703999999997,5.750545636033358,0.04966127636167481
17.494788,5.691592990929187,0.04931987717830572
17.498876,5.630735187175055,0.04898004395780006
17.502968,5.567529325171225,0.04867243448965852
17.507064,5.502983346692644,0.04838925976488358
17.511156,5.427792908289389,0.04815937138936707
17.515251999999997,5.351373078311317,0.04794949570561279
17.51934,5.271375798508732,0.047797810936953324
17.523435999999997,5.192619327956496,0.047681789350150675
17.527527999999997,5.112522740929509,0.047595425013929465
17.531623999999997,5.035339254327427,0.047488564843193
17.535719999999998,4.955918434375581,0.04741249297881951
17.539811999999998,4.877738423674085,0.04737379905941942
17.543908,4.8060603808975415,0.04731166450863849
17.548,4.738425522896317,0.04727776497363408
17.552096,4.673150140820323,0.04726561087029557
17.556136,4.617179102194253,0.04722762904470842
17.560171999999998,4.566812814618124,0.04716947634045475
17.564263999999998,4.5188060029672235,0.04713628387014707
17.568295999999997,4.467553916191616,0.04714860845910071
17.572387999999997,4.418882755141108,0.04716699420646076
17.576472,4.371563128240884,0.047221911211535086
17.580503999999998,4.326492252365955,0.04731404988836223
17.584528,4.2832158102410505,0.04740949042835002
17.588552,4.242741743641116,0.04749538080935871
