Time,Force,Position
15.163532,0.08526011272579707,0.0
15.167624,0.09823327891467157,0.0
15.171716,0.11311160375350457,0.0
15.175808,0.12619549484231396,0.0
15.179892,0.14006587790620026,0.0
15.183984,0.15393626097008659,0.0
15.188076,0.16870386090898473,0.0
15.192172,0.18436867772289472,0.0
15.196264,0.199025552761858,0.0
15.200364,0.2154768615508449,0.0
15.20446,0.22905725725148995,0.0
15.208552,0.24296982765193964,0.0
15.212648000000002,0.2557637313775078,0.0
15.216743999999998,0.26216639207805825,0.0
15.220835999999998,0.27025276162869755,0.0
15.224944,0.27766336410419473,0.0
15.229032,0.27913704082994656,0.0
15.233068,0.27253576568059207,0.0
15.237116,0.26783964918119607,0.0
15.241208,0.2660566331067052,0.0
15.245248,0.26136051660730925,0.0
15.24928,0.25946677563288356,0.0
15.253368000000002,0.25275477558359416,0.0
15.257468,0.24974236793428692,0.0
15.261568,0.2470621349847843,0.0
15.265668000000002,0.24449262693521656,0.0
15.269712000000002,0.24113662691057183,0.0
15.27374,0.23688341001091534,0.0
15.277776,0.23341668508633578,0.0
15.281828,0.22883129348687464,0.0
15.285924,0.22772404448752595,0.0
15.290028,0.22908699631334295,0.0
15.294124,0.2309042654144323,0.0
15.298152000000002,0.23777266106578798,0.0
15.302232,0.24688980774243963,0.0
15.306316,0.2551211552196123,0.0
15.310404000000002,0.27232467144690325,0.0
15.314484,0.2893181555498573,0.0
15.318464,0.306433782228279,0.0
15.32256,0.32658465190707375,0.0
15.326584,0.35167592323619984,0.0
15.330644,0.38081037934064565,0.007690333749088876
15.334696,0.4160039037703044,0.01518283667959206
15.338728,0.44941441212547234,0.022991348889399903
15.342764,0.483733555031185,0.03082749270365294
15.346852000000002,0.5218744329123475,0.03843516999618802
15.350936,0.5609239453440549,0.04622145656371305
15.355024,0.6011035421261766,0.05412746562289326
15.359112,0.6427453979585172,0.06209733644082084
15.363204,0.6880982638663729,0.06995950443425983
15.3673,0.7358334410505252,0.07817015433863704
15.371392,0.7902155640861632,0.08629278508913853
15.375484,0.8541463157226598,0.09414650135144409
15.379576,0.922696711985216,0.10204497354646487
15.383668,0.9988905781986719,0.10969408607984328
15.387756,1.080257713537862,0.11736347790189153
15.391848,1.164339334853153,0.12503612579643214
15.395944,1.2620013518690893,0.1324705080406003
15.40004,1.3648366380107595,0.1398962407039234
15.404136,1.470497135028466,0.14735236821828313
15.408232000000002,1.578528525646936,0.15481324441797137
15.412328,1.688598635166365,0.1545924681857431
15.416428,1.802501897336777,0.15457743355944487
15.420524,1.925278021032905,0.15416672437447387
15.424616,2.0513222552048087,0.15377609337998277
15.428712,2.180523874952553,0.15360718636202023
15.432808,2.315795980701043,0.15325344227943827
15.436904000000002,2.455122688900386,0.15283557962882507
15.441004,2.601417099975486,0.15229682818565984
15.4451,2.747379336350782,0.15188568874694022
15.449196,2.891856478324793,0.15108480428878043
15.453288,3.0267621563468796,0.15034312031182773
15.457388000000002,3.1509891214176937,0.14989242817493867
15.461484,3.2696878073119033,0.14933681693353718
15.46558,3.3722137541048345,0.14917785143908088
15.469672,3.4705629558714457,0.1489270434001125
15.473768,3.5615894447114287,0.14863423966500605
15.477864,3.6402535117500503,0.14857618735678016
15.48196,3.713954341787275,0.14844417465566928
15.486056,3.7819054428480263,0.14823477422262973
15.490152000000002,3.845236899282717,0.1479906905931583
15.494252,3.8990083094410166,0.14778937378510967
15.498344,3.9459113239479606,0.1475674272901654
15.502444,3.983819334353721,0.14742514607458915
15.506536,4.018004917008433,0.1472176328485383
15.510636000000002,4.044989929311985,0.14702947433697092
15.514732,4.067798196589217,0.14675945560321646
15.518824,4.089232094365099,0.146328216612203
15.52292,4.101560263139862,0.1459739600627394
15.527016,4.108150120613683,0.14562791813940346
15.531112,4.11619081946219,0.14520714394013606
15.535212,4.1267017191358635,0.1447528394818889
15.539304,4.138331285484419,0.14425275597346737
15.543400000000002,4.151644560683063,0.14373352190422772
15.547496,4.173475687356552,0.14297832805557975
15.551592,4.190377830055244,0.14237173606752063
15.555688,4.205153364304106,0.14184072239370416
15.559784,4.219707448753099,0.1413318715410368
15.563924,4.231126982977319,0.1409363019347356
15.56802,4.24153857542659,0.14057585791612132
15.572108,4.251495850600589,0.14019119166528649
15.5762,4.266049935049583,0.1396950024369604
15.580296,4.281501236373588,0.1391819082620627
15.584384,4.2952688288475045,0.13869330072472888
15.588476,4.308803553846017,0.1381578004568783
15.592572,4.322670453544336,0.13758659753017582
15.59666,4.33194054396766,0.13712749584161896
15.600752,4.33661382511599,0.13678031519798042
15.604844,4.343413714714149,0.13636042903795054
15.608936,4.3548104135873,0.13583717890107175
15.613036,4.36161030318546,0.1354242632600343
15.617128,4.364599875483701,0.13510834033239003
15.621228,4.36837593975702,0.1347872472504857
15.625324,4.367555194755345,0.13456870456057524
15.629416,4.365947957778592,0.13435837608353796
15.633516,4.369491154576507,0.13399216765710373
15.637612,4.375160959824251,0.13355538559355165
15.641704,4.381052214871866,0.13309382019130125
15.6458,4.38828358639423,0.1325678559979548
15.6499,4.3939419739664425,0.1320524831166924
15.653992,4.3967979860136825,0.13160135369113074
15.658088,4.3978595643109,0.131187551197464
15.66218,4.398245375532976,0.13076933655496345
15.666284,4.4034494458299145,0.13023406559209316
15.670372,4.4067483574768955,0.1297453873019923
15.674472000000002,4.409150052248864,0.12927305400756225
15.678568,4.410543805245886,0.12882402174232474
15.682664,4.412159008042778,0.1283506007262506
15.68676,4.415457919689758,0.12786035187294292
15.690856,4.416175905611638,0.12741188265079942
15.694892,4.4180125582083996,0.12692461579651737
15.698984,4.421975819254989,0.12636947733892123
15.703072,4.425374038126371,0.12579906088557447
15.707108000000002,4.4297801987727,0.12519806348667467
15.711196,4.433067692744148,0.12464089494993699
15.715232,4.434450028065637,0.12412970076072283
15.719324,4.43762679713715,0.12359130177789278
15.723412,4.445511100383592,0.12296165535367086
15.72744,4.454292620505045,0.12232091644356866
15.73152,4.466552283226611,0.1216346686079005
15.735604,4.4806063796982,0.12091759411626343
15.739688,4.494660476169789,0.12020256688937847
15.743772,4.508603847741444,0.11950091420493848
15.747856,4.519634118888192,0.11887120882934599
15.75194,4.532348098885031,0.1182264349052904
15.756016,4.545848570856946,0.11757817431078942
15.760096,4.56405657700379,0.11683809445360993
15.764168000000002,4.584059016900658,0.11607401349870557
15.768256,4.605180123472406,0.1152938688025954
15.77234,4.624285346494262,0.11455985573872705
15.776432,4.642161177941302,0.11387172732723445
15.780516,4.659029067613395,0.11320828371129085
15.784604000000002,4.674667565710672,0.11259040136484456
15.788696000000002,4.692321947357842,0.11192869730804636
15.79278,4.707173953480041,0.1113161205795101
15.796868,4.720796568027423,0.1107477479444416
15.800948000000002,4.730498140374955,0.1102632481698397
15.805024,4.734484236772611,0.10988919739935248
15.809104,4.736565174520308,0.10955120175689907
15.81318,4.7328199114181935,0.1093283333486208
15.817268,4.72885319851621,0.1091262048839347
15.821352,4.725783702489238,0.10891190555412679
15.82544,4.725516581987235,0.10865212429811588
15.82952,4.724241519710288,0.10841431314024672
15.833604,4.720950573883447,0.10822103470173501
15.837684,4.721691395156393,0.10794151364263989
15.841768000000002,4.720748507579249,0.10767634740657622
15.845848,4.718686953327225,0.10744323506096527
15.849932,4.706202388950396,0.1073847910451398
15.854016,4.696409475198603,0.10729183086846258
15.858111999999998,4.687624503221756,0.10717687988049951
15.862203999999998,4.67951529832005,0.1070704719185567
15.866292,4.670508876543334,0.10697520526141518
15.87038,4.663186163616706,0.10686639694579111
15.874468,4.659563043090059,0.10670287949799691
15.878556,4.659971689663201,0.1064561287525313
15.882644,4.663404161561182,0.10614647698794881
15.886728000000002,4.665717966784281,0.10586476305445319
15.890816,4.669826205757404,0.10556149165713669
15.894908,4.681887254030165,0.10510048010180564
15.898996,4.6942804770027315,0.10461038117972019
15.903088,4.703871324450328,0.10416295647047252
15.907172,4.707857420847985,0.10380157343759867
15.911264,4.7128514590205866,0.10341912094758894
15.915356,4.717169730118046,0.10302514622857382
15.919448,4.715772525265631,0.10272776756684886
15.92354,4.71426459551328,0.10244059024540242
15.927628,4.712867390660865,0.10214353289469531
15.931724,4.7199880372832945,0.10170830668379452
15.935816,4.727440858605529,0.10124626390930655
15.939904,4.736798838577723,0.10075721497865878
15.943996,4.747496935024667,0.10022073381643791
15.948084,4.7648077242964995,0.09959067316038187
15.952184,4.774719328768367,0.09905858982284522
15.956276,4.7830579492900815,0.09853066982991722
15.960368,4.787696977411813,0.09805463831118708
15.964455999999998,4.789533630008575,0.09761648416394146
15.968544,4.798315150130028,0.09705679677396438
15.972628,4.8026105858764225,0.09654119186426662
15.976712,4.802087762547952,0.09610418088336722
15.980796000000002,4.802572880994429,0.09565017089433626
15.98488,4.804176666115788,0.09516595214245964
15.988968,4.808693551662052,0.09463346862232117
15.99306,4.813542611908121,0.09407360191029743
15.997148,4.824217873004001,0.09342814134449881
16.001232,4.838703451399797,0.09273181867061238
16.005324,4.85441842137041,0.09200332301948407
16.009372,4.870354841140892,0.09125872812581558
16.01346,4.88471827696122,0.09051844053464729
16.017552,4.899081712781547,0.08978483644307071
16.021648,4.909745556201894,0.08909346662110124
16.025736,4.921417341397187,0.08839288498710972
16.029768,4.9238955080424915,0.08778584402793753
16.033856,4.930073267087779,0.08713367283637752
16.03794,4.935132359458184,0.08650762556242575
16.042032,4.939294234953579,0.08588660454361821
16.046076,4.948274369523836,0.0852049507773766
16.050168,4.9526576948190995,0.08457384211686568
16.054268,4.963542988039315,0.08387692183206634
16.05836,4.974649731059401,0.08316099284462329
16.062456,4.981048939904558,0.08249487047451715
16.066496,4.988456090524662,0.08181355310537297
16.070588,4.993060865619795,0.08115860235966933
16.07462,4.9955390322651,0.080543381300171
16.078708,4.991293781185583,0.0800115058666
16.082796000000002,4.980325112381242,0.07955768430879848
16.08688,4.965324676477115,0.07916345997656471
16.090964,4.947300415248151,0.07881288710827211
16.095048,4.928943979319379,0.0784881369615619
16.099132,4.906887950990626,0.07819376136083428
16.103216,4.883037488911848,0.07790832237793813
16.1073,4.854368767758208,0.07767737801960067
16.111376,4.830407580779497,0.07739464546923708
16.115456000000002,4.808351552450744,0.0770888991058748
16.11954,4.785730481946783,0.07675722084717228
16.123624,4.762887961642954,0.07644152253395958
16.127704,4.736235124039206,0.07616439449169718
16.131792,4.708463619760577,0.07590816139617555
16.135876,4.676206031106889,0.07567481645737871
16.13996,4.643726992653331,0.07545656790744595
16.144052,4.618757863899672,0.07516514103119493
16.14814,4.5918835764960555,0.07488955667036183
16.152228,4.569716823267368,0.07456760101783413
16.156316,4.547660794938615,0.07423288426418251
16.160396,4.525715491509797,0.0738843542755457
16.164484,4.509707113830724,0.0734551385727773
16.168576,4.498738445026384,0.07295216477114903
16.172652,4.49180154332183,0.07238986761094572
16.176736000000002,4.484078149642201,0.07182161763143591
16.180816,4.479943623462619,0.07123291362909766
16.1849,4.480405906558031,0.0706088975994138
16.188984,4.481876131428389,0.0699652885312925
16.193068,4.480322530973907,0.0693612413034655
16.197152,4.477085221669336,0.06875700914092288
16.201232,4.470491912340121,0.06821649908678007
16.205316,4.465127994585722,0.06763910166560876
16.209452,4.458756135056377,0.06707255604465884
16.213536,4.450589841777007,0.06650789402892714
16.217616,4.441194156922822,0.0659719018233695
16.2217,4.428209604568589,0.06544633150643178
16.225836,4.409620301164415,0.06496556265833557
16.229972,4.394730590160224,0.06445715945576677
16.234056,4.375244069881039,0.063974908489565
16.238136,4.359235692201965,0.06348659314778098
16.242272,4.348499890873028,0.0629859440853683
16.246412,4.335858930894133,0.0625008006864955
16.2505,4.317059595365623,0.06210203415648523
16.254592,4.296133651387284,0.06173686900289484
16.258668,4.273523998558856,0.06136248569197585
16.262816,4.248111970205458,0.06100392767739688
16.266904,4.223818608526941,0.06062077636718924
16.270992,4.203446289048276,0.060194174679107086
16.27508,4.185089853119505,0.05973842408282124
16.279168,4.165725475415788,0.05929018783543619
16.283248,4.151400806586803,0.05877523377971815
16.287332,4.139657063482919,0.05826333740563754
16.291416,4.128921262153983,0.057735600286005224
16.295496,4.120987836350015,0.057185765994011796
16.299576000000002,4.114062352320997,0.05661788836590252
16.30366,4.114646777991876,0.05600187619346888
16.307744,4.1171363623127135,0.05537071277418067
16.31182,4.114586237758817,0.054798247995543545
16.315904,4.111925388304987,0.05422901566627523
16.319984,4.101078862076116,0.05367825178544231
16.324068,4.084062542622095,0.05312519679539164
16.328148,4.065706106693325,0.0526104626866382
16.332232,4.049476279214383,0.05205439622698722
16.33632,4.0332464517354385,0.05149478896687091
16.340412,4.01578723268168,0.05095841291413932
16.344508,3.996422854977962,0.050426898721146786
16.348596,3.969216392874541,0.049962806963223215
16.352692,3.934732888546623,0.049599617929386164
16.356776,3.900925151293846,0.04925332603765241
16.360804,3.8640935887162304,0.04893507522718976
16.364864,3.825135417688786,0.04864548091277153
16.368864,3.777770120086431,0.048388986062095074
16.372952,3.726262330484354,0.04818838742954086
16.377,3.6765489746322997,0.04797732965681762
16.380992,3.627511385855388,0.047784774412182346
16.385028,3.57163965445372,0.04764450667020877
16.389116,3.50860160572749,0.04760050155517234
16.393116,3.4448877899261174,0.047531896701799504
16.397212,3.383644174949911,0.047482278301547824
16.40126,3.328791802998722,0.04741131175904712
16.405344,3.275401690097752,0.0473710142977604
16.409428000000002,3.2220115771967826,0.047330368090033964
16.413524,3.1685107393958774,0.04729598816962078
16.417564,3.1101916425201086,0.04729865134225465
16.421556,3.0551292384445827,0.0473437478962782
16.425588,2.9989481676941754,0.047417987853750586
16.42958,2.9455694724687387,0.04748237557737291
16.433664,2.892412227043171,0.047530656817003594
16.437696,2.8366740558925034,0.04755722045639804
16.441792,2.785421969116895,0.04758328798221214
16.44582,2.733051215666405,0.0476407824292658
16.449912,2.6850558216910385,0.04771753404099649
16.453992,2.6391870361655,0.047750656850693865
16.458084,2.589286483540176,0.04784467204436421
16.46212,2.535797063414804,0.04794261354182381
16.466208,2.4830941352645093,0.04806409779772705
16.470296,2.434422974214001,0.04813236102780146
16.474384,2.388443463788528,0.04819334779463847
16.478476,2.33977230273802,0.04825718565580582
16.482508,2.2908796918876413,0.048350103926125376
16.4866,2.2381767637373464,0.04849663485029801
16.490696,2.182671460062082,0.048676613727472194
16.494736,2.124253055961911,0.048909084575721344
16.49878,2.0733445615616395,0.04906897161744598
16.502876,2.018171432586179,0.049207418257013726
16.506972,1.9686030546606588,0.049298830257335134
16.511068,1.9191454016350735,0.04936635971678017
16.515164,1.8724901241344587,0.04941744637875482
16.5192,1.8255026719340395,0.049537175570794574
16.523292,1.774815627333638,0.04969760032575117
16.527372,1.7251365245081831,0.049844590010307076
16.53146,1.6774733052326216,0.04993948248064111
16.535496,1.6316045197070839,0.05002087529674891
16.53958,1.5838305755315871,0.05016361245016364
16.543716,1.5425585992810433,0.050226608531052284
16.5478,1.499381464380541,0.050353236475394685
16.551888,1.4592281548048787,0.05036500036111673
16.55598,1.4180669034542697,0.0504016600062784
16.560016,1.3779135938786073,0.0504006278978725
16.564104,1.3339499670030281,0.05049190509542231
16.568188,1.2964883080524017,0.050525983429007174
16.572276,1.261829024626745,0.05053360725394483
16.576364,1.2280669580761003,0.05056682638053935
16.580296,1.1865735320256865,0.04804445839543355
16.584272,1.145755873050415,0.04551204939375635
16.5883,1.1011278967752265,0.04300890208084896
16.59238,1.0589701213252036,0.040528372378935244
16.596464,1.015804404100234,0.03804468206974537
16.600548,0.9746545704251579,0.03552603104159365
16.604628,0.9372043291500639,0.03296668445052509
16.608664,0.8977382043250766,0.030401542268608153
16.612696,0.8554697039751189,0.02786897188438392
16.616836,0.8121932618502147,0.025366775687413627
16.620924,0.7727271370252272,0.02278210401396677
16.625016,0.7304586366752694,0.020273281434522186
16.629104,0.6949135540501341,0.017677425601730627
16.633144,0.6579176300503125,0.01519320008833141
16.637176,0.6210324309504256,0.012704649271886746
16.641212,0.5858309407006277,0.010250939114679307
16.645244,0.5555584344256282,0.0077049196515161615
16.64928,0.5218077855505163,0.005162383941337927
16.653312,0.4880571366754046,0.0026127496624835816
16.657352,0.46181639750019193,0.0
16.661324,0.440504642299778,0.0
16.665352,0.4260270297241211,0.0
16.669388,0.4134545757984227,0.0
16.673472,0.40099284677265923,0.0
16.67756,0.38953905952184237,0.0
16.6816,0.37976898112111435,0.0
16.685628,0.3711175693952679,0.0
16.689656,0.37030824206912516,0.0
16.693696,0.3712933484930062,0.0
16.697724,0.3749701055419227,0.0
16.701764,0.37976552926572077,0.0
16.7058,0.3823236196397556,0.0
16.709784,0.3847709851138556,0.0
16.713768,0.3884477421627721,0.0
16.717752,0.3928002662868306,0.0
16.721744,0.39524763176093064,0.0
16.72572,0.3909715795102084,0.0
16.729764,0.3883792361095749,0.0
16.733748,0.3866841095839533,0.0
16.737776,0.3811786657584146,0.0
16.741812,0.376348989008018,0.0
16.74584,0.36659032828282284,0.0
16.74988,0.3579503342325092,0.0
16.753984,0.3504290068570772,0.0
16.758092,0.3487338803314556,0.0
16.762196,0.34524432005581035,0.0
16.766336,0.3388416593552599,0.0
16.770484,0.32560485602995226,0.0
16.77458,0.3122573278047097,0.0
16.778712,0.29431299030447333,0.0
16.782796,0.27704441987937894,0.0
