Time,Force,Position
5.672576,0.35070844299436615,0.0
5.676604,0.35036485061902867,0.0
5.680636,0.3548395173185549,0.0
5.68466,0.3679427603928619,0.0
5.688688,0.3778007283424591,0.0
5.692716,0.3838483789921393,0.0
5.696744,0.3822753950419854,0.0
5.700784,0.3827182946417249,0.0
5.704812,0.38046954361642893,0.0
5.70884,0.37710212591625136,0.0
5.712868,0.37563986686603235,0.0
5.716888,0.3758613166659021,0.0
5.720912,0.37540699939062977,0.0
5.72494,0.3749526821153574,0.0
5.728968,0.3686721639902747,0.0
5.732984,0.35713048719058865,0.0
5.737008,0.352312228115725,0.0
5.741036,0.34065982641610415,0.0
5.745064,0.33292846691633515,0.0
5.749092,0.325418557216436,0.0
5.75312,0.3161142137665131,0.0
5.757152,0.3068098703165903,0.0
5.761188,0.2943709766418925,0.0
5.765216,0.2782324905672125,0.0
5.769244,0.26533927961724246,0.0
5.773276,0.2523353437673374,0.0
5.7773,0.24493615896737309,0.0
5.781324,0.23652903239246206,0.0
5.785356,0.2290191226925629,0.0
5.789384,0.22218498006780574,0.0
5.793404,0.2124377370181434,0.0
5.797428,0.20380916064336263,0.0
5.80146,0.19305397581875358,0.0
5.805484,0.1820773411942748,0.0
5.809512,0.1728951403198197,0.0
5.813536,0.1659502727951277,0.0
5.817564,0.1531792044206253,0.0
5.821536,0.14511567022105173,0.0
5.825516,0.13514697737151968,0.0
5.829544,0.12664054357220664,0.0
5.833564,0.12384958572276913,0.0
5.837588,0.11915346922337314,0.0
5.841612,0.11299509367375808,0.0
5.845636,0.10439080302407425,0.0
5.84966,0.09466784569950881,0.0
5.853692,0.0878579887998486,0.0
5.857716,0.07824575637521805,0.0
5.861748,0.06863352395058753,0.0
5.86578,0.060029233300903685,0.0
5.869808,0.051744249301460384,0.0
5.87378,0.04547514885191046,0.0
5.877808,0.038100249777043044,0.0
5.881836,0.03263050935213414,0.0
5.885864,0.02727149382716012,0.0
5.889888,0.024812710677527244,0.0
5.893912,0.02448053597772263,0.0
5.897936,0.02594279502794166,0.0
5.90196,0.02953166252798895,0.0
5.905984,0.031104646478142855,0.0
5.910008,0.03312053002803624,0.0
5.914028,0.029199487828184344,0.0
5.918052,0.028302270953172514,0.0
5.922084,0.029985979803261287,0.0
5.926112,0.03781519615340104,0.0
5.930144,0.04866823782838088,0.0
5.934172,0.0605292212783074,0.0
5.938196,0.07328742160324576,0.0
5.942228,0.08593489702824923,0.0
5.946252,0.09858237245325271,0.0
5.950276,0.1101240492529387,0.0
5.954304,0.12177645095255954,0.0
5.958324,0.13621836012758667,0.0
5.962344,0.14774716887770858,0.0
5.966368,0.15905452782796076,0.0
5.9704,0.17127197170278882,0.0
5.974428,0.18192784930299583,0.0
5.978456,0.19258372690320283,0.0
5.982484,0.20279670490367033,0.0
5.98652,0.21379617487921482,0.0
5.990556,0.22290190388033362,0.0
5.994584,0.23784525140679572,0.0
5.998608,0.2567324764841754,0.0
6.002636,0.27765842046251415,0.0
6.00666,0.29614841664228575,0.0
6.010684,0.31646709959867964,0.0
6.014716,0.34209261193180807,0.0
6.01874,0.37481938739169474,0.008510945319765796
6.022764,0.4181255685784521,0.01686040264167992
6.026788,0.47279764746715713,0.025020841514694456
6.030816,0.5429781160575314,0.032729217213208345
6.034848,0.6227300485998298,0.04045425556945754
6.038872,0.7096939691688213,0.04814052538588586
6.042904,0.8084666870394999,0.05586197137350538
6.046936,0.9164672764867651,0.06359112949835473
6.05098,1.0297746953107647,0.07142426816504358
6.055012,1.1505155519613275,0.07931312979505604
6.05904,1.2831759308135122,0.08707785015405148
6.063076,1.4241669643672716,0.09481487163632621
6.0671,1.5753938112725643,0.10251157213162045
6.071124,1.7387502125038157,0.11008620615946248
6.075152,1.9062719410858544,0.11766360886881255
6.079184,2.074026537143296,0.12527913128613555
6.083204,2.2455914505006542,0.13283936333213844
6.087228,2.424089813707172,0.1402485441647328
6.091252,2.6015573997876773,0.14762415320078529
6.095276,2.7758561826168084,0.1549639344367666
6.0993,2.94495886096914,0.1537180918969594
6.103328,3.1020198745443825,0.1526507318452879
6.10736,3.2469284984426006,0.1517809819569481
6.111396,3.376439457539084,0.1513842548564957
6.115424,3.4982841113336014,0.15090477745262393
6.119452,3.6093279096013786,0.15048472725319498
6.123492,3.7133811696423322,0.14997626453234944
6.127516,3.810333166556528,0.14940779130350648
6.13154,3.9011918421189122,0.14870359039882722
6.135568,3.9861786461293547,0.14786931365781245
6.139592,4.05935665283811,0.14715917818781474
6.143612,4.122852470695006,0.1464533087657069
6.147636,4.176444649900173,0.14577606162860848
6.151668,4.21576924865402,0.1453025023131782
6.155692,4.2501306104064716,0.1447636822794024
6.15972,4.279418010257589,0.14416326544126004
6.163748,4.301061940157807,0.14363730966660246
6.16778,4.311817124982416,0.14330891937512694
6.171812,4.318185532656369,0.14299788309813635
6.175844,4.321740147129818,0.14268681200472516
6.179872,4.321030127028076,0.14245358934568553
6.183908,4.325814133076342,0.1420908801324863
6.187932,4.330708864024542,0.14171488137835722
6.191956,4.334927827897602,0.14133216046614874
6.195984,4.340044008645671,0.14093572922577893
6.200012,4.349081231593592,0.14042946558594646
6.204035999999999,4.355426803916479,0.13998283948196177
6.20806,4.361993826039234,0.13951876460691962
6.212092,4.3696795148368714,0.13901800843934936
6.216116,4.373333436534723,0.13863731675738142
6.220144,4.374295707607538,0.1383093942604823
6.224172,4.3760444706554305,0.13797572124445065
6.2282,4.375777350153428,0.137700807655183
6.232244,4.37965272165115,0.13729191056784315
6.236272,4.381512209598976,0.13694550551734075
6.2403,4.384268914421815,0.13658218945988654
6.244264,4.391057386344442,0.1361033108218955
6.248288,4.399640292017091,0.13558350269585862
6.252368,4.409009689664818,0.13505746391874268
6.256392,4.415465986887638,0.1346067281808809
6.260424,4.428989294210619,0.13403065757132537
6.264384,4.436907850483659,0.13358858328763934
6.268352,4.446510115606788,0.13312382198250972
6.27232,4.456788147805059,0.13266109698717882
6.276348,4.46146142895339,0.1323277764902854
6.280384,4.4603085092519095,0.13214588067428357
6.284412,4.462068689975335,0.1318895216688307
6.288436,4.460694320473984,0.13173109542341854
6.29246,4.460217167847646,0.13155730010255828
6.296432,4.460969406796125,0.1313318314410509
6.300456,4.466429179919532,0.13099886141436093
6.304492,4.468189360642957,0.13074380907572244
6.308512,4.474989250241115,0.13034876578492183
6.312536,4.480891922964263,0.12997305110412793
6.316556,4.487126770387214,0.1295643995995231
6.320584,4.488764808535171,0.1292481190902678
6.324616,4.487379021358289,0.12901707671960866
6.328644,4.4907007683563345,0.12868493947914814
6.332676,4.499516541504387,0.12825386913695544
6.336708,4.5128183990274975,0.12774420937605235
6.340736,4.5179345797755674,0.1273891170010861
6.344772,4.523837252498714,0.12702703445530406
6.3488,4.52693754969689,0.12672170490964416
6.352828,4.529140630020055,0.1264299319618523
6.356852,4.532462377018101,0.12609696227895756
6.360876,4.541721049765893,0.12561370461503532
6.3649,4.548066622088779,0.12520239698958713
6.368924,4.557657469536375,0.1246911036189186
6.372948,4.561422116134161,0.1243176990737885
6.376976,4.56698119648197,0.12391417902608229
6.381,4.5698486262047435,0.12355834670777105
6.385036,4.575629156352423,0.12313228178446022
6.389064,4.577599369200185,0.12279200410264932
6.393092,4.582150507773048,0.12242093055799427
6.397128,4.584575037896082,0.12211089423721148
6.401096,4.596082461669169,0.12164505673410515
6.405124,4.6055740018923625,0.12122792243033106
6.409156,4.606436965740776,0.12099753420866244
6.41318,4.598782078114343,0.12094291383488284
6.417148,4.591237915387846,0.12087663257645588
6.421171999999999,4.585377461511436,0.12079239010228994
6.425196,4.5834380498348795,0.12061860319359761
6.429168,4.5863168972331865,0.12034236772011629
6.433192,4.594911220581368,0.11995204030523034
6.43722,4.6061971945545865,0.11951989509016497
6.441248,4.613229951628148,0.11920919492076643
6.44528,4.618246825151816,0.1189444969281915
6.449308,4.61822398980075,0.11880269965187873
6.453336,4.621003529974654,0.11860681105200063
6.45736,4.62165646169873,0.11847139794975928
6.461396,4.620969276948055,0.11839247300012234
6.46542,4.619949917497576,0.11834580518198301
6.46944,4.616693224697334,0.11837134844804602
6.473468,4.608728997722162,0.11849031693691087
6.477492,4.603567146271961,0.11855534671798013
6.481516,4.589211676271772,0.1187841400966274
6.485536,4.577880031596422,0.11893797485376806
6.489564,4.573493254445765,0.11892687644434416
6.493596,4.5701144190700544,0.11889074045629391
6.497624,4.561917324619481,0.11896156635843934
6.501652,4.553830955068842,0.11902194213869449
6.505688,4.5400291095683265,0.11920376793630606
6.509716,4.522416946767895,0.11946291416932057
6.513744,4.49808136624264,0.11986580593618024
6.517776,4.472627119042504,0.12030210571373019
6.5218,4.444702671017203,0.12077091308231461
6.525828,4.423612365616658,0.12107733885965152
6.529852,4.407451044190912,0.12126652579812038
6.533876,4.392519114339983,0.12140604917044126
6.5379,4.376911417413913,0.12154042699639704
6.541928,4.367351371137521,0.12151966557505926
6.545952,4.363052483535733,0.12135049624589957
6.549976,4.363904029708614,0.12104575339572111
6.554004,4.364866300781429,0.12072761820852633
6.558036,4.3659392967541795,0.12040024985980793
6.56206,4.373624985551817,0.11994149093219504
6.566092,4.380302732574508,0.11950956099948715
6.57012,4.3865375799974595,0.11912579583108786
6.574152,4.395685527845316,0.11867921721752023
6.57818,4.41166761831793,0.11808649815507866
6.582208,4.429554867440502,0.11745763619281925
6.586228,4.451141708963056,0.11676057735234184
6.590252,4.470601942035781,0.11611493915848786
6.594284,4.494991159083306,0.11535569329265383
6.598308,4.521396259680723,0.114553288282061
6.602328,4.555311269978041,0.11361060517663465
6.606348,4.580376254100709,0.11286621100279687
6.610372,4.604322571548494,0.11216651941163766
6.614412,4.625023613871569,0.11155954521070933
6.61844,4.649313523694691,0.1109002650732899
6.622468,4.6686744495430155,0.11035811553997958
6.6265,4.680869058066778,0.10999703619280451
6.630528,4.689929116365767,0.10971824868848758
6.634564,4.701680825289789,0.10940132141766232
6.638592,4.710630158688843,0.10913281068128747
6.64262,4.718460825413013,0.10890212899533054
6.646644,4.725283550362238,0.10869368122301953
6.650668,4.727620190936403,0.10854626667136719
6.6547,4.730743323485644,0.10839834915039219
6.658723999999999,4.728040255185077,0.10836408783818026
6.662748,4.726234403759521,0.10831791970898015
6.666776,4.722523393684004,0.10830522777020517
6.6708,4.7210497169582535,0.10822813295542004
6.674836,4.715654998032648,0.10822883266891059
6.678864,4.708465845357021,0.10825201767521811
6.6829,4.696790608306335,0.10833037291690452
6.686928,4.695870556080258,0.1082035436691375
6.690951999999999,4.693045345204222,0.10810923446941956
6.694979999999999,4.695370568102854,0.10789917196785652
6.699007999999999,4.698814457676368,0.10766109419041628
6.703035999999999,4.703487738824698,0.10738235921179687
6.707063999999999,4.7115170199976735,0.1070113381091075
6.711079999999999,4.722459401595554,0.10658957020506285
6.715116,4.735306941843392,0.10614189916551599
6.71914,4.749716048365851,0.10562438110385851
6.723164000000001,4.75852040383837,0.10518770024473428
6.727183999999999,4.769562092660652,0.10469177508165214
6.731204,4.785643490357669,0.10409478466706468
6.735239999999999,4.798357470354507,0.10352166897853184
6.739267999999999,4.815103217451132,0.10286957594595016
6.743295999999999,4.829046589022787,0.1022610039221575
6.747328,4.846013785919282,0.1015954814829912
6.751356,4.866902025015628,0.10086769681301652
6.755380000000001,4.892608523186838,0.10006494514766964
6.7594080000000005,4.918315021358048,0.09926495082221293
6.763432,4.948618328804253,0.09841793551170927
6.767455999999999,4.9721982185256355,0.09768903245281817
6.77148,4.9961102829468205,0.09693010472789605
6.775511999999999,5.020022347368007,0.09618683049676978
6.779532,5.041242761164159,0.09547858082410468
6.783555999999999,5.063249666935387,0.09477521474209637
6.787584000000001,5.081335530506762,0.0941331775984285
6.791608,5.09773768522805,0.0935039926982583
6.795648,5.108756538699266,0.09292630384919598
6.799676,5.124494344020945,0.09236170395371314
6.8037600000000005,5.143366699567399,0.09173083761736811
6.807788,5.162017605313983,0.09112367164354707
6.811755999999999,5.179328394585815,0.09056690766604228
6.815735999999999,5.200228051357694,0.08998180366733252
6.819763999999999,5.21911182457968,0.08943512951278525
6.823788,5.238217047601535,0.08886998622160729
6.827807999999999,5.253733403123343,0.0883372591434119
6.83184,5.266115208420377,0.08786705616061034
6.835863999999999,5.274010929342352,0.08743513098722061
6.839884,5.2828038671393385,0.08699795170627786
6.843912,5.284086895236425,0.08664323654466811
6.847936000000001,5.284694156258369,0.08627647544237202
6.851972,5.287095851030338,0.08589664869155196
6.856,5.285797953402325,0.08555419966012567
6.860023999999999,5.2836028388992995,0.08521804119074931
6.864051999999999,5.280621232421197,0.08488045189910547
6.868084,5.281449943243013,0.08449890009999854
6.872112,5.2831758709398375,0.08411225130428074
6.87614,5.285799015511677,0.08371625021162266
6.88016,5.282030917058498,0.0833750523221639
6.884176,5.279270760380265,0.08301861987581359
6.888204,5.273929677976931,0.08267154334530663
6.892232,5.267912828498456,0.08231386984320786
6.896255999999999,5.260101545269959,0.08196893566337633
6.90028,5.250495828291435,0.08163452846295877
6.904304,5.24167660328799,0.08130193683760664
6.908327999999999,5.238351404434551,0.08092731007554427
6.912355999999999,5.236477046955796,0.08050581816988225
6.916388,5.236507848127001,0.08006395882447279
6.920416,5.23384699867317,0.07963803198020603
6.924415999999999,5.233988524744309,0.0791838034323723
6.928448,5.236821701440483,0.07871313809527328
6.932423999999999,5.238757661261649,0.07824947784003428
6.936392,5.237669795757973,0.07782371670435012
6.94036,5.236360480454426,0.07741387234357931
6.944384,5.235948382025891,0.07699990930087845
6.948347999999999,5.231615241397504,0.07663107554555137
6.952316,5.223361058569266,0.07630736463322252
6.956284,5.219925134815892,0.0759329707505534
6.960319999999999,5.2205209781623045,0.0755047889343875
6.9643440000000005,5.222800530358805,0.07507750783114801
6.9683720000000005,5.227771733180342,0.07463588838512115
6.9724,5.231734994226932,0.07420747947963001
6.976367999999999,5.233793096623563,0.0737960842977967
6.980335999999999,5.236748415895206,0.07337833029210743
6.9842960000000005,5.239703735166849,0.07296112363881596
6.988268,5.238062245163499,0.07257765029549597
6.992227999999999,5.233064755135502,0.07225715253534286
6.9962,5.227735090407703,0.07196165947796454
7.000168,5.225318526104808,0.07163627524726009
7.004144,5.225593612426948,0.07129916089959559
7.008112000000001,5.225868698749087,0.07096364637990592
7.012079999999999,5.225811610371423,0.07065313271179395
7.016043999999999,5.231469997943634,0.07029317076463196
7.020068,5.239144269065738,0.06990951389617263
7.024036000000001,5.246707815287908,0.06953648828245548
7.028003999999999,5.2609947792349,0.06910588952698757
7.031979999999999,5.281107944031701,0.0686214725917295
7.036008000000001,5.295173458178824,0.06820969466394934
7.040036000000001,5.306215147001107,0.0678352818093743
7.044067999999999,5.3170353860235195,0.067480763626117
7.0480920000000005,5.326736958371051,0.06714729039008346
7.052111999999999,5.338232964468606,0.06680803843711584
7.056139999999999,5.349396795866356,0.06649070819782707
7.060167999999999,5.3651574365391,0.0661520643684054
7.064188,5.381815294086855,0.06581210009640708
7.068211999999999,5.4001568604846995,0.06547545240379411
7.072244,5.421522252207385,0.06510589206472774
7.076268000000001,5.441879702155123,0.06474708897128952
7.080296000000001,5.459102601878086,0.06443021342592985
7.084268,5.47442034295109,0.06412944435774118
7.088355999999999,5.490303126199302,0.06385208569183583
7.092388,5.504612925497359,0.06356414358628451
7.096411999999999,5.515112407495499,0.06330441675178129
7.100444,5.527295598343729,0.06305001959428462
7.104472,5.536565688767053,0.06281940122380134
7.108547999999999,5.5439306205404195,0.062605383640873
7.112572,5.545580076363909,0.06243017105099418
7.116543999999999,5.553952949912222,0.062207387838808845
7.1205680000000005,5.5638988074106885,0.06199511351923853
7.124592,5.568350638759149,0.061804705336751295
7.128615999999999,5.576723512307462,0.06158367175884656
7.132643999999999,5.58218328543087,0.06138493097865696
7.136671999999999,5.591564100754128,0.06115398273702423
7.140644,5.5942214983525655,0.06097044935357022
7.144667999999999,5.594076520426032,0.06080124971309532
7.148707999999999,5.592812875824616,0.06064987053614951
7.152732,5.591106331623461,0.06052939375472788
7.156756,5.5924236127471465,0.06037995247094862
7.160788,5.597551211170749,0.060206991639342095
7.164807999999999,5.599987158969316,0.06003968518275693
7.168832,5.597937022392824,0.05988267934131359
7.17286,5.597570594666422,0.0597286459253362
7.176883999999999,5.600903759340001,0.059558847190810296
7.1809080000000005,5.597845680988562,0.05941078020709742
7.184932,5.595906269312004,0.05924466833681002
7.188964,5.590156540335532,0.05910172191649306
7.192992,5.590011562408999,0.05893183688214575
7.19702,5.584151108532591,0.05879656118202355
7.201044,5.578844279155856,0.05862368607728161
7.205080000000001,5.578355708853984,0.058418174368210486
7.209104,5.570357228852214,0.05824938469745251
7.213132,5.568184949700253,0.0580406279476195
7.217164,5.563321019923258,0.057837078982273964
7.221192,5.562488857246049,0.05759631494299339
7.22522,5.565245562068888,0.057349316486354156
7.229244,5.569231658466544,0.057078903863415076
7.233276,5.571866220713915,0.056781708777315816
7.237299999999999,5.571476957636446,0.05651213613788996
7.241268,5.570079752784031,0.056252841675902346
7.245255999999999,5.572382140331597,0.05597981078812932
7.249319999999999,5.574905977679033,0.05568923906138247
7.253375999999999,5.58067509015118,0.05535948426932488
7.257432,5.583641827098355,0.05504191807606671
7.261476,5.590308156445513,0.05471014837967358
7.26548,5.596187993817595,0.054371198215119605
7.269539999999999,5.6028543231647525,0.05403706230125184
7.273515999999999,5.6058210601119285,0.053716797097677564
7.277571999999999,5.611700897484008,0.053377903798166815
7.281563999999999,5.615343401506327,0.05307168049793743
7.285608,5.61887518062871,0.052774454062620275
7.289612,5.626782319226217,0.05247846246342707
7.29364,5.628863256973915,0.05221946831918681
7.297611999999999,5.636548945771553,0.05194278491574842
7.301639999999999,5.643337417694179,0.05166824953883089
7.30566,5.649560847441597,0.05137452054512853
7.309632000000001,5.649958076339205,0.05111267798448439
7.313604,5.651031072311954,0.050864708430699755
7.317636,5.653222734959586,0.050601142687476244
7.321612,5.6548493554320105,0.050316964084309204
7.325583999999999,5.656586700804369,0.050026776762105485
7.329611999999999,5.663707347426799,0.04973420022054729
7.33352,5.663661676724669,0.049502827150272
7.337439999999999,5.662718789147526,0.049270820220318146
7.341404000000001,5.662673118445395,0.04903898220872317
7.345371999999999,5.664986923668494,0.048827883306513456
7.34934,5.668419395566476,0.048601720012599915
7.35332,5.669725259014629,0.04839675360646524
7.357340000000001,5.668118022037876,0.04820699642400171
7.361316,5.663819134436088,0.048016448181661286
7.36528,5.6576150881843414,0.04783365113408669
7.369244,5.647711449532612,0.047658606668409445
7.373212,5.637918535780818,0.047474870667229066
7.377184,5.618599828779232,0.04732982285461405
7.381164,5.597043788427881,0.047214072477037475
7.385187999999999,5.569440097426852,0.04714296688538931
7.389163999999999,5.546543940600752,0.04705548787898893
7.393127999999999,5.523869233574521,0.04695163538997722
7.3971,5.500186584773344,0.04685434628388501
7.401064,5.474942369697544,0.046801852346278754
7.405044,5.447350096372047,0.04678699978134273
7.409008,5.415947505746633,0.04678650813175977
7.413036,5.391046883046172,0.046771653904375994
