Time,Force,Position
17.93922,1.4470790153020794,0.04255174431727021
17.943312,1.3769853741512224,0.04019458094762552
17.947395999999998,1.3030814157004484,0.037837298316602035
17.951487999999998,1.2262643568247689,0.03552144613926515
17.955536,1.1505659646239712,0.03318553726201619
17.959636,1.0692628213732327,0.030891983439514752
17.963731999999997,0.991204953247204,0.028534361379838453
17.967823999999997,0.9132578100211103,0.02612986920473333
17.971923999999998,0.8371051005450404,0.02372377582866468
17.97602,0.7653391682196272,0.02136569340279677
17.980112,0.7017703303447884,0.01895203609227783
17.984208,0.6454020628211099,0.0165933653070744
17.988243999999998,0.5992696086489645,0.014264847153954733
17.992279999999997,0.5593412007285655,0.011937751077995587
17.996371999999997,0.531786632285061,0.009578132606217895
18.000463999999997,0.5196411463188236,0.016048677682358597
18.004555999999997,0.5212324516552977,0.022509486712563233
18.008643999999997,0.5400386908945956,0.02876936958282805
18.012732,0.5852534825867051,0.03454705433870004
18.016816,0.6539637263067213,0.04251040528650398
18.0209,0.7431455967298037,0.0503431800161923
18.024988,0.8485344592807633,0.05817942048606687
18.02908,0.9788696152343157,0.06587280282101379
18.033172,1.1276490966655084,0.07353444856422606
18.03726,1.2912840360742937,0.0812326040836232
18.041348,1.474481967635601,0.08887637764045546
18.045444,1.67421906602459,0.09650799595877636
18.04954,1.8920568975158816,0.10407349042574232
18.053568,2.124185144809559,0.11163042421470316
18.057652,2.36913013117987,0.1191566704484177
18.06168,2.6256510473764654,0.1266257747062459
18.06576,2.888463899373677,0.13407096507386168
18.069792,3.1534033598207167,0.14148004862097144
18.073832,3.4287544127170277,0.14875142846692166
18.077912,3.7044148049620778,0.15594687774329585
18.081992,3.9745355003549907,0.15419910895449807
18.086024,4.236745605295004,0.15240367072682923
18.090052,4.485096776356837,0.15076025135752785
18.094088,4.713308495415409,0.14949076633075836
18.09812,4.9209264451954455,0.14846124975403832
18.102212,5.1059347421470545,0.14759238928444493
18.106244,5.2777598722956265,0.14667371080720082
18.110276,5.433156560516451,0.14586832553807058
18.114312,5.57100614013465,0.1451341930997172
18.118352,5.697256954575496,0.1443668285954016
18.122388,5.810114570088969,0.14363567909945127
18.12648,5.9117055951248965,0.14286946267720235
18.130512,6.000800638108461,0.14212298336413476
18.134604,6.0784076408146115,0.14135193313536284
18.138692,6.144194428543541,0.14058323301425985
18.14278,6.197939551495381,0.13983563270777313
18.14682,6.241781035795492,0.13909615812580128
18.150848,6.277402590293964,0.13834555618511052
18.154932,6.298756564341116,0.13771731090802852
18.159012,6.3099968676122025,0.13715363659197938
18.163096,6.315510277257881,0.13664533831586412
18.16718,6.316205427828694,0.13622788150271972
18.171204,6.316457678799769,0.13584310345367967
18.17524,6.316942797246246,0.1354917241668327
18.179264,6.318115100443398,0.13519444956751825
18.183292,6.326919455915917,0.1348149333709941
18.187324,6.336510303363513,0.13443441246160362
18.19136,6.342290833511192,0.134118940648259
18.195448,6.354573331583824,0.13370111206724353
18.199488,6.371219771456047,0.1331843265044749
18.203524,6.386736126977855,0.132647415363307
18.207552,6.399893006574432,0.13212718567093967
18.211592,6.410579685345844,0.13163049139377805
18.215632,6.419693380167103,0.13114412369216563
18.219668,6.429925741663242,0.130634472363857
18.2237,6.441055320034393,0.13011739726439034
18.22774,6.453082115280556,0.1295908702334135
18.231828,6.466460444677004,0.1290763379112052
18.23592,6.481301033123671,0.12856241678475278
18.239948,6.500074081445723,0.1280324579072714
18.243976,6.5187364048678385,0.1275102000540276
18.248008,6.53560429453993,0.1270071285850913
18.252044,6.552915083811762,0.12647574881065798
18.256076,6.574368365083316,0.12586408645707953
18.260156,6.601193529929409,0.12514361438967647
18.264188,6.624540552175389,0.12446315656388786
18.26822,6.647211807346226,0.12378507559281646
18.272256,6.67693865494169,0.12298603261661763
18.276288,6.702400867961964,0.1222306232518465
18.280324,6.724274213482191,0.12152722970770938
18.284356,6.744918167427603,0.1208568406990665
18.288392,6.767245830223103,0.12017897947363947
18.292436,6.787779059268578,0.11952019766152858
18.296468,6.8085337381139235,0.11884952182879115
18.300512,6.826928941034039,0.11819038105017159
18.304548,6.842288900953781,0.11753591577419147
18.308584,6.855732284548033,0.11686076911876404
18.312672,6.864124541592019,0.11621882096513107
18.316756,6.873967640010689,0.11553476566660646
18.320788,6.880554045629118,0.11486638669472088
18.32482,6.888824160097634,0.11418812529539597
18.328848,6.903706967391038,0.11342889888101214
18.332876,6.917925425284833,0.1127138644991798
18.336908,6.930017274728799,0.11204140118590133
18.340936,6.93617219842302,0.11145925614014227
18.344972,6.946248164317094,0.11082573256191873
18.349,6.951505871136303,0.1102536175465382
18.35304,6.953174710455467,0.10971925710835154
18.357072,6.954954274674563,0.10917748874464087
18.361108,6.9522477545186,0.10867479001099663
18.365144,6.94998413396238,0.10814361768161852
18.36918,6.945361037480925,0.10761665109793496
18.373216,6.943761766324313,0.10704534539536628
18.377252,6.945751362667746,0.10644710543756483
18.381284,6.9479738264865825,0.10588225310174654
18.385316,6.952112866630911,0.10534270237325895
18.389396,6.958954975075807,0.10482895462435513
18.393472,6.969950993195957,0.1042973598263345
18.3975,6.979496169941422,0.10380940930951792
18.401536,6.99083578043691,0.10330683176243806
18.405564,7.003404782507214,0.10278052414703584
18.409592,7.012274192177538,0.10229380748080195
18.413628,7.020800009472523,0.10178081459034934
18.417664,7.031673885017206,0.10122391930077619
18.421696,7.040753326811865,0.10067669879240851
18.425792,7.046022451306608,0.10017307793867135
18.429888,7.059022935301119,0.09958404619157107
18.433916,7.070572577920945,0.09903573924476025
18.437952,7.083916654290793,0.09847629976110446
18.442036,7.100738873260755,0.09789597104003374
18.44612,7.1191340761808695,0.09731843358115472
18.450208,7.138991538151204,0.09675025991047918
18.454296,7.158627550321668,0.09619964719373114
18.458384,7.173556028317204,0.09569720212598193
18.462468,7.190721839662503,0.09515967589318511
18.466556,7.206314667057648,0.09462215321693158
18.470652,7.223358335827479,0.09405233344500845
18.474744,7.24084490419705,0.09346064213591125
18.478836,7.25855292236649,0.09285770977444795
18.482932,7.277158157410943,0.09225200304985161
18.48702,7.294976900480318,0.09165091002148082
18.491112,7.3138035853246395,0.09104121865544651
18.495208,7.33733780434389,0.09039843456570032
18.4993,7.356840256263354,0.08980405269197239
18.503392,7.382279633932563,0.08914848691317556
18.507484,7.405813852951813,0.08850767957504055
18.511576,7.422624654246242,0.08793062223008977
18.515672,7.441562063990499,0.08732673775388629
18.519764,7.460499473734755,0.08672703291936762
18.52386,7.481231317229035,0.08612143667416795
18.527952,7.5019631607233155,0.08551962371866668
18.532048,7.521122020267441,0.08491698789641816
18.536148,7.54117809668658,0.08431427618375384
18.540244,7.559329014455759,0.08372453531102839
18.54434,7.572661673150075,0.0831760727833699
18.548432,7.589804649144308,0.08260102576615996
18.552528,7.599326990538707,0.08208491610884304
18.556628,7.606611998583343,0.08160250914397432
18.56072,7.612889064853032,0.08113059093230583
18.56482,7.616363755597751,0.08067740247256006
18.568916,7.616703896117695,0.08026063667378845
18.573008,7.613909486412863,0.07987984780458122
18.577104,7.601257108758435,0.0795865677337472
18.5812,7.589612672878954,0.0792820367382527
18.585296,7.57360429519988,0.07903480440246982
18.589392,7.558382409495885,0.07878808518157361
18.593492,7.544954957541912,0.07853206192069934
18.597588,7.528392955363163,0.07831121894908025
18.601684,7.507012694109553,0.07812669120718786
18.60578,7.479130464930991,0.07798017337385582
18.609876,7.445643484702487,0.07786763938128377
18.613908,7.411713604874243,0.07777794123020583
18.617992,7.372178973996058,0.07772185067119337
18.622084,7.334438776867897,0.07765737394333466
18.626176,7.300508897039652,0.07756388777387246
18.630268,7.260752816361599,0.07751567763816603
18.63436,7.230190354233532,0.07741637120849805
18.638396,7.203438209405384,0.07728894872778815
18.642436,7.175678122802288,0.07717012522399919
18.646464,7.148815253074204,0.07704640227751497
18.650492,7.1219523833461205,0.07692177010283942
18.654524,7.096429630092787,0.07676774743141339
18.65856,7.078859686139093,0.07654098191178088
18.662588,7.062973451035488,0.07631254049904361
18.666616,7.05335631638143,0.07601439712899855
18.670604,7.043739181727376,0.0757148076951637
18.674632,7.037821639473302,0.07539612523014415
18.678672,7.034927922544069,0.07504882364839893
18.682704,7.038536173539789,0.07466608573333364
18.68674,7.046519784010632,0.07427071220737191
18.69078,7.063697013031463,0.07383113741157944
18.694812,7.083111575402058,0.07336193056013397
18.698848,7.105217788397688,0.07288054441596155
18.702884,7.129561334743083,0.07237035804207989
18.706916,7.150316013588429,0.07187354266671708
18.710948,7.172521533808461,0.07134101278446842
18.714972,7.186652102153386,0.07083881570150012
18.719004,7.196185861223317,0.07035962397176529
18.723032,7.209862112292971,0.0698398101604663
18.72706,7.225443522012583,0.06930960952228957
18.731092,7.243151540182024,0.06875559664887226
18.735132,7.261424600526669,0.06821795816823528
18.739164,7.276784560446413,0.0677035405397957
18.743204,7.291579478190947,0.06717619702506474
18.74724,7.299429528410791,0.06670503697317895
18.751272,7.313327229280315,0.06618627514441418
18.755312,7.321730903999832,0.06568890326234908
18.759356,7.329237361844338,0.06519560111479122
18.763384,7.332036285513914,0.06472665044384698
18.767424,7.337293992333123,0.06422005326916369
18.77146,7.334366022377291,0.06373951814382513
18.775488,7.328524951996555,0.06327655312793908
18.77952,7.323913273190635,0.06279369368470157
18.783548,7.31706426103495,0.06233826894987986
18.78758,7.314701333254326,0.061873136084285844
18.791608,7.314808606298867,0.0614142080451581
18.795636,7.320409905493415,0.06093852698095767
18.799672,7.326011204687962,0.06046115559983598
18.803708,7.33116960428277,0.06001048004544409
18.807744,7.337225220752589,0.05956078615625015
18.81178,7.342051445647591,0.05913008743057126
18.815812,7.347099120342464,0.05868852748272357
18.819848,7.354727720762437,0.05824972094552284
18.823888,7.362810638457682,0.057833885946196574
18.827928,7.375601090327857,0.05740028257744775
18.831968,7.386043483948333,0.057002327370079556
18.836004,7.39648587756881,0.05660222197662695
18.84004,7.405133837439262,0.05620452855624663
18.844068,7.41669489773462,0.05579243455325832
18.848096,7.424224190930191,0.055408577620787255
18.85218,7.434334409850863,0.05502554348288766
18.856264,7.4443339038716,0.054646959867590515
18.8603,7.4533254561173905,0.05427572266106081
18.864324,7.462538458163051,0.05389293323426078
18.86836,7.468949084683741,0.053519701276423096
18.872388,7.472446610779524,0.0531603516110962
18.876424,7.469220719150488,0.05282812265712361
18.880456,7.465994827521451,0.05249442998107381
18.884488,7.456377692867396,0.05217010068957739
18.888524,7.4411558071634,0.05186005314941867
18.892556,7.429854963659255,0.051530871178185784
18.896596,7.416648961505152,0.051207384729790646
18.900692,7.398846150076055,0.050891409089041766
18.904724,7.374541370722006,0.05058817752546798
18.90876,7.344631840318016,0.0502974286099281
18.912852,7.307433850013997,0.05001329391060623
18.916884,7.269903685010173,0.0497437468904862
18.92092,7.232041345306544,0.04948903575671818
18.924948,7.19126590517801,0.04924495124886434
18.92898,7.150158290349672,0.04901631451020669
18.933016,7.109050675521333,0.04878592041701635
18.937044,7.070745436217965,0.04854721737978669
18.941072,7.029416371589757,0.04832382655314765
18.9451,6.983047598086815,0.04812802242286255
18.949132,6.931860565509009,0.047948103989890536
18.953164,6.878768374281245,0.04777187069407546
18.957208,6.82735989190357,0.047599244085356186
18.961244,6.77303830910099,0.04743588006100113
18.965276,6.719281768473618,0.04728865972374765
18.969316,6.664295836271428,0.04715815868606839
18.973348,6.597657502369619,0.04707731352192919
18.977384,6.527884618243033,0.0470203347036264
18.981416,6.4559851256666185,0.04698170973896122
18.985452,6.388793167265135,0.04692791522115415
18.98948,6.320371817288834,0.04689272296304829
18.993516,6.252404784587805,0.046883950438558544
18.997548,6.185445693661723,0.04686755464941878
19.001584,6.111984634810688,0.04686513555733146
19.005612,6.032918824909713,0.04687529655145382
19.00964,5.951272089283638,0.046877605706817586
19.013676,5.864917819482633,0.0468923976024595
19.017704,5.770045698206782,0.04693437373182187
19.021748,5.674841402231126,0.04700043691293776
19.025784,5.584455365330334,0.047043410489796184
19.029816,5.497658195929589,0.047086933250071995
19.033852,5.412655460278871,0.047128496787842616
19.037892,5.32765272462815,0.047170448446418975
19.041932,5.244333697827518,0.047219582750557154
19.04602,5.158212295501916,0.04728141729625325
19.050052,5.072201618076248,0.04733756028050167
19.054088,4.991119924625379,0.047364311393185296
19.058068,4.9091410142994985,0.04739452251363295
19.06206,4.830075204398524,0.04740775975403205
19.066092,4.746977627397762,0.04745641273654835
19.070116,4.662982833521988,0.047509529722839755
19.074148,4.582233314770924,0.047516285700491066
19.078184,4.4996893622698355,0.04752009586073021
19.08222,4.425552536343659,0.04749430453509774
19.086204,4.355901794792542,0.04746791568316223
19.090236,4.286926820316566,0.04746031016379168
19.094272,4.222548655115585,0.04744130621814029
19.098312,4.161870082314586,0.04741328240591283
19.102344,4.1023101761884675,0.04736746023933584
19.10638,4.038829227862498,0.04735058939579277
19.110416,3.974451062661516,0.04733360548831126
19.114444,3.9099621725605993,0.04732533833262343
19.118472,3.8406550233848185,0.04735543991911912
19.1225,3.7731423079590627,0.047385645868655187
19.12654,3.7124637351580634,0.047358308281137046
19.130568,3.6544768129820997,0.047330382800404316
19.1346,3.599070816531237,0.04731163504023767
19.138628,3.548372354255303,0.04726929988299333
19.142664,3.494650066654528,0.0472634362108788
19.146752,3.4431651124035163,0.04720934474327853
19.150788,3.397284909202446,0.047129793398276124
19.15482,3.3509618064016355,0.04709522599943321
19.158856,3.3036307618258784,0.04707066539254513
19.162892,3.252267950150335,0.0470968668185949
19.166928,3.2019130802497378,0.04710846797609677
19.170964,3.154360585874111,0.0471091158501764
19.174996,3.1028870492986327,0.047152196865141806
19.179028,3.0532079464731776,0.04719593017058967
19.18306,3.0044260605227353,0.04724028716405035
19.187092,2.9613596505221675,0.04724094839100002
19.191124,2.9184039654215344,0.04722543579805896
19.195208,2.871637963020985,0.04724316846618916
19.199244,2.833611261895151,0.047171886851903044
19.203276,2.793790127019293,0.0470996855121685
19.207304,2.752739600568619,0.04706586113425519
19.211328,2.7129184656927614,0.04697976633109058
19.215364,2.670294955291933,0.046908873413533565
19.2194,2.6285686617661166,0.046833256294352234
19.22344,2.591771352215099,0.04669532439682338
19.22748,2.55665775151417,0.04656581285266976
19.23152,2.516725891738378,0.04648151823252188
19.235564,2.4758968150875735,0.04640000686166821
19.2396,2.4403403147869054,0.04633866698860935
19.243684,2.408815581586024,0.0462101168870474
19.247772,2.3789745572352308,0.04609629581568535
19.251864,2.3483470409093608,0.045961298842055506
19.255944,2.323656450333236,0.045739083271342025
19.260028,2.3016575103821473,0.04551796765133179
19.264064,2.278761353556047,0.04529159562455388
19.2681,2.2509362127551475,0.045130522917805574
19.272128,2.222778897254444,0.04502255575060155
19.276156,2.2003370577036154,0.04486065894147661
19.28024,2.1757686097029585,0.04474798292388048
19.28432,2.1541132621272068,0.044594437693353584
19.288396,2.127639655476592,0.04449639258379395
19.292436,2.0996044825513556,0.044515825640396
19.296464,2.0753796269260363,0.044497387593292116
19.300492,2.0473444540008,0.04451677522186591
19.304584,2.015498963775647,0.044568839474973865
19.308664,1.9786137646757598,0.04474085261337946
19.312748,1.9475547664256834,0.04482850758700934
19.316828,1.913693392650637,0.04495457578265643
19.320868,1.8764646011754127,0.0450327683958582
19.324896,1.8361012594754131,0.04521029506557604
19.328984,1.7928248173505088,0.04545469397547053
19.333072,1.750224142300747,0.04575481725204002
19.33716,1.7016865415012394,0.04619450112311247
19.341252,1.6495600732016844,0.046644722912135415
19.345288,1.597322880002195,0.04715231091634144
19.349316,1.5481095121275452,0.047592134105623594
19.353352,1.4982203771777536,0.04801573621460129
19.357436,1.4455288667029915,0.048477681895919555
19.361524,1.3910429224782055,0.04896081022957574
19.365616,1.332525211153633,0.04679195077954302
19.369712,1.2799444255788055,0.04729207374202886
19.373748,1.2278065396037179,0.04500271965723244
19.377828,1.1719690612286475,0.04273602242351934
19.381864,1.1219577837033885,0.04044934174715241
19.385956,1.0736302150282178,0.03816556569315318
19.39004,1.031350297002727,0.0357806803502076
19.39408,0.9852600616773195,0.033448678284102105
19.398164,0.9457825191767992,0.031061877327489544
19.4022,0.907091468651356,0.028703144839929848
19.406228,0.8677246510507706,0.026283098103442242
19.410304,0.8304844419000135,0.02379617912677798
19.414384,0.7926791905740492,0.021274695310610135
19.418464,0.7598029232228837,0.018669629022775473
19.422544,0.7250214972217595,0.01605245900044622
19.42658,0.6913587378955168,0.013382700261964878
19.430668,0.6575852536693393,0.01074745308525025
19.434748,0.6293057955931678,0.008091463775442306
19.438836,0.6009156126170611,0.005417793717317178
19.442924,0.5684936625411677,0.0027242449889039624
19.446948,0.5359609875653395,0.0027242449889039624
19.450976,0.5032068627896414,0.0
19.45506,0.4722471717639671,0.0
19.45914,0.44487634823834005,0.0
19.463228,0.4116793238629026,0.0
19.467264,0.37960096616234673,0.0
19.471296,0.34730115866192107,0.0
19.475332,0.3157878431365724,0.0
19.479364,0.28528246938617036,0.0
19.4834,0.2546663707358336,0.0
19.487488,0.22954429823550251,0.0
19.491572,0.20643810928506487,0.0
19.49562,0.1819918038598759,0.0
19.499652,0.15811054060989413,0.0
19.503692,0.13871536173497148,0.0
19.50778,0.12671936766001318,0.0
19.511864,0.11382615671004304,0.0
19.515956,0.09622541158514401,0.0
19.520048,0.08445086731005547,0.0
19.52408,0.08343150785957594,0.0
19.528108,0.08767330708369958,0.0
19.53214,0.08911273078285292,0.0
19.536224,0.09044142958207135,0.0
19.54026,0.09087291150627799,0.0
19.544296,0.0929881022805734,0.0
19.548324,0.09555761033014115,0.0
19.552352,0.09913506015465559,0.0
19.556388,0.10450694372919367,0.0
19.560416,0.10584706020394498,0.0
19.5645,0.11099749397861332,0.0
19.568588,0.11424276910332315,0.0
19.572624,0.1170451446282935,0.0
19.576656,0.12567372100307425,0.0
19.580692,0.1314999218528847,0.0
19.584728,0.13743684760262997,0.0
19.588824,0.13205354635255906,0.0
19.592856,0.12667024510248812,0.0
19.596896,0.1280103615772394,0.0
19.600936,0.12341355230224542,0.0
19.604968,0.1145635261275949,0.0
19.609056,0.10335981765029918,0.0
19.613144,0.09776648427589137,0.0
19.617172,0.09307036777649536,0.0
19.621256,0.09027940992705787,0.0
19.625284,0.09140949427747229,0.0
19.629324,0.09410114490250776,0.0
19.633352,0.09679279552754323,0.0
19.637384,0.09959517105251359,0.0
19.641412,0.10542137190232402,0.0
19.645448,0.10945313900211079,0.0
19.64948,0.11337418120196273,0.0
19.653508,0.11449284787684427,0.0
19.65754,0.10967458880198054,0.0
19.661628,0.10608572130193324,0.0
19.665716,0.10260757870182083,0.0
19.669808,0.1046234622517142,0.0
19.673896,0.11123615507660158,0.0
19.677984,0.11191192215174364,0.0
19.682024,0.11527933985192118,0.0
19.68612,0.11797099047695667,0.0
