Time,Force,Position
31.173756,4.587611022043051,0.046781979703521076
31.177844,4.501344641790914,0.0466402134217268
31.181872,4.411046494438993,0.046529712382791376
31.185855999999998,4.316938029787154,0.046432424726413624
31.189888,4.218797798035527,0.04636863741974005
31.19392,4.120546841383965,0.04631144515607772
31.198007999999994,4.021398667857392,0.04625171029599993
31.202104,3.9167564681808136,0.046197309189197025
31.206199999999995,3.8113277765291573,0.04612624558589906
31.210296,3.700970100902704,0.04609840410962068
31.214383999999995,3.5936362506010897,0.04602990181668352
31.21848,3.4846186914493873,0.04594830054747918
31.222567999999995,3.3771741162478386,0.04588966928973033
31.226659999999995,3.2716346996962473,0.04582715287222239
31.230751999999995,3.166992500019669,0.04576134312475166
31.234848,3.0622395754431557,0.04570233146633683
31.238944,2.9564787090916953,0.045649508490825365
31.24304,2.8474839852910585,0.045874520287386755
31.247132,2.7416580647417943,0.04656760278695677
31.251172,2.6472973491188805,0.04762836066803919
31.25526,2.560148621522659,0.04918206647318057
31.259352,2.477630956228031,0.05117134256487171
31.26344,2.407807887434568,0.05337239200798865
31.267528,2.3438338548419817,0.05580599825394284
31.27162,2.2880569166999702,0.0583461021531921
31.275707999999995,2.2341965548834497,0.06106772556787894
31.279796,2.1885332875175028,0.06388064540944496
31.283884,2.147146072402278,0.06694993892133332
31.287976,2.110378501913114,0.07030814180735334
31.292064,2.0809222266750447,0.07398222952183951
31.29616,2.054413304888479,0.07806966698891613
31.300256,2.037575154278239,0.08238120323072051
31.304356,2.027040357144148,0.08693479783393533
31.308452,2.0276271725610693,0.09150592041440353
31.312532,2.0384383836539905,0.09612181093692117
31.316572,2.0559958478228,0.1008595280349554
31.320664,2.0811967819425092,0.1057157690655699
31.324696,2.120398176011537,0.11008593404954879
31.328723999999998,2.1644943010287654,0.11379284380864495
31.332752,2.1987975122942,0.11717874133914963
31.336792,2.2262094925572127,0.12003793223429332
31.34082,2.247638876368349,0.12252189236843708
31.344852,2.258278822328277,0.12499513551935139
31.348879999999998,2.270923234162566,0.1271751003600809
31.352912,2.2800895033967428,0.12943194121042584
31.356944,2.2940740317057835,0.1314515023883125
31.360983999999995,2.307382792939682,0.1334202694726552
31.365016,2.326284887547988,0.13499648469522457
31.369052,2.343369713055205,0.13632644050578757
31.373036,2.3631119361608586,0.1371007600870857
31.377019999999995,2.3794524885397363,0.13749881007961695
31.381,2.3874623862170394,0.13779506597348373
31.384975999999995,2.390509046892945,0.13791230946363325
31.388952,2.382544819917773,0.1382307243290304
31.392987999999995,2.367834339866714,0.13861572269599504
31.397016,2.3508636911148253,0.1388821394320054
31.401052,2.3306249318871615,0.13910232595626001
31.405083999999995,2.304781421609557,0.13956714784924248
31.409127999999995,2.277609212532734,0.14027117154197027
31.413163999999995,2.2541480135314265,0.14097442014432682
31.417199999999998,2.2311525494809232,0.14192382143892857
31.42124,2.215002645730711,0.14261901376080877
31.425284,2.2015443926055336,0.14324241943685762
31.429316,2.1831457378300247,0.14401970731318703
31.433243999999995,2.1685459826789,0.14442736751427332
31.437276,2.1472113921274203,0.14508555631183337
31.441303999999995,2.1247467172255265,0.14567828770455704
31.445339999999995,2.095890799298614,0.14659260743656927
31.449368,2.0674891986469746,0.147592987900905
31.453396,2.0352886983709513,0.14895126164977995
31.457428,2.0084829170205314,0.15019662604077255
31.461468,1.9912143465954366,0.151037572032364
31.465495999999995,1.9828072200205258,0.15147131012037454
31.469539999999995,1.9837044368955377,0.15143090845428964
31.473572,1.9877362039953241,0.15117154174070022
31.477608,1.9931080875698626,0.1507801635984789
31.481644,2.0015037964692404,0.15020206457315932
31.485679999999995,2.0129233306934586,0.14945048252638285
31.489715999999994,2.022659156067588,0.1487451658123031
31.493752,2.036881065816777,0.14786239347894545
31.497788,2.0571620438911786,0.1467368804979099
31.501816,2.0693794877660068,0.14610306856312005
31.5059,2.085296524040817,0.14527467286744108
31.509892,2.1017786024908345,0.14444741146695028
31.513976,2.112655929890911,0.14391993757060503
31.518016,2.1298137754160704,0.14308886024413747
31.522012,2.146860896041295,0.14228544505783633
31.526095999999995,2.1711964765665495,0.14112701959841756
31.530124,2.2003503161666673,0.13970713742602517
31.53416,2.2316307642166135,0.13811214409270228
31.538188,2.2603302865414587,0.13664642343541303
31.542224,2.284998041766517,0.13549871422784687
31.54626,2.302045162391742,0.1347864260042837
31.550287999999995,2.316068457692127,0.13428369172905236
31.554328,2.3296488533927717,0.13388137469658348
31.55842,2.3388653072938252,0.13377146232394344
31.562452,2.3469630945199973,0.13374709206264887
31.566447999999998,2.3511398395463172,0.1339255218430787
31.570443999999995,2.3594590765723593,0.13386456435764235
31.574472,2.362062837648526,0.13406466234499323
31.578551999999995,2.363315064574408,0.13424254258084975
31.582636,2.3742038096500178,0.13396979013808982
31.586712,2.384981829825693,0.1337240243714629
31.590751999999995,2.3994594424013496,0.1333279806566566
31.59478,2.417980239752326,0.13283844909654824
31.598811999999995,2.432690719803386,0.13252768757333233
31.602892,2.4481876918295216,0.1322072077601517
31.606984,2.4581906377056524,0.13210859619592427
31.611064,2.463596774306789,0.13218971911874292
31.615148,2.469789402883002,0.1322616020325032
31.619232,2.4751955394841385,0.1323426553072024
31.623316,2.4782422001600444,0.13245353939766927
31.627396,2.4859963950108797,0.1323689436082623
31.631484,2.492853372986702,0.1323162780724896
31.635572,2.5000425256623293,0.13220592378940552
31.63966,2.513057879187767,0.1318312807382331
31.643752,2.5251760158381935,0.13148980791886297
31.647848,2.541890961763613,0.1309863831576088
31.65194,2.55334474901443,0.13077194075223877
31.656036,2.5679330864900223,0.1303839064714384
31.660124,2.5827428737654836,0.12996775315531636
31.664207999999995,2.5922800846908087,0.12971736910418508
31.668299999999995,2.6019280205160698,0.12945242447432
31.672388,2.610002972391176,0.1292092238531531
31.676475999999997,2.6196394905409037,0.12883217339474692
31.68056,2.631624066940329,0.1283093620887587
31.684608,2.6427114264647424,0.12781393566600063
31.688703999999998,2.654806727764103,0.1272691841686617
31.692795999999998,2.668696462813487,0.1266707236870924
31.696892,2.6822426054875335,0.12601955835380618
31.700979999999998,2.699820515261367,0.12520432702396625
31.705076,2.7213194672350522,0.12423633733223832
31.709171999999995,2.7385537846335484,0.12336710266806875
31.713263999999995,2.7537722184821507,0.12257379344012131
31.71736,2.765856102105978,0.12192701979559142
31.721456,2.774018943529954,0.12144150377211109
31.725552,2.7819603351540594,0.12099101390431521
31.729644,2.782502541978201,0.12077898115620861
31.73374,2.786290023927052,0.12039658892675456
31.737835999999994,2.791196172550785,0.11995939846935884
31.741927999999994,2.790951887399849,0.11975388822236507
31.746027999999995,2.7923913110990024,0.11951633214899655
31.750124,2.792822793023209,0.1193231008792335
31.75422,2.792922100247611,0.11918449602749931
31.758316,2.7926892327722084,0.11910147617982912
31.762408,2.7911162488220542,0.11911358330385532
31.766507999999995,2.791780598221664,0.11900800335868568
31.770548,2.792444947621273,0.11890242341351603
31.774635999999997,2.792212080145871,0.11882046166239862
31.778727999999997,2.7885124877458893,0.11893129474142443
31.782816,2.7824648370962093,0.119170271973123
31.786908,2.770701710496653,0.11959883410838809
31.791,2.760733017647121,0.11998286551093322
31.795088,2.752890933247417,0.12027273619726554
31.799176,2.7499778328225117,0.12037639143452912
31.803264,2.748072674172553,0.12044044837760949
31.807356,2.7464996902223997,0.12045171537503047
31.811387999999997,2.7497449653471095,0.12029098396070184
31.815484,2.752093023596807,0.12015512668289222
31.819576,2.752203748496742,0.12013752420769638
31.823664,2.7611644995713274,0.11979118999376262
31.82776,2.7702359755458477,0.11943320996674184
31.831855999999995,2.7803153932953144,0.1190381960157501
31.835888,2.7962210118945916,0.11846045475599368
31.839976,2.8084270380938867,0.11798452878877233
31.844012,2.823546164718087,0.11741886806820807
31.848104,2.8373251748675363,0.11695063483117846
31.852196,2.8541280103418254,0.11638298985721206
31.856292,2.8707093960162444,0.11584585480518153
31.860328,2.8924412154653325,0.11511234124855016
31.86442,2.913607992739213,0.11435511710302863
31.868512,2.9402687961630996,0.11345299951413554
31.872595999999994,2.9682811337372708,0.11258491885544937
31.876684,2.9999930637114227,0.1116450121634265
31.880772,3.026776009710777,0.11087207574443382
31.884868,3.0565827810349715,0.11000767205254378
31.888963999999994,3.0880732612092543,0.1091317965378842
31.892992,3.121468900033496,0.10822686412438923
31.897076,3.1538565970827905,0.10735343396019036
31.90116,3.1865764688318903,0.10643509603919578
31.905244,3.2161617903562143,0.10566844468788375
31.909271999999994,3.2427232865556985,0.10499723282219435
31.913304,3.272197883180088,0.104268532097952
31.917331999999995,3.2910280198798034,0.10382673594331715
31.921412,3.3153521827295247,0.10327602859948115
31.925492,3.3377711869292876,0.10278370429885418
31.929576,3.3594036991539737,0.10229397299062297
31.93366,3.376893719378938,0.10194408330678555
31.937743999999995,3.3985262316036238,0.10147042991694706
31.941772,3.41713491850347,0.10109313455577898
31.945856,3.4355221556034454,0.10074563771855713
31.949943999999995,3.453687942903552,0.10043259199913343
31.954027999999997,3.4712886880284506,0.10009644708525309
31.958119999999997,3.4832846821034087,0.0998757606248177
31.962216,3.499201718378219,0.09955792767203644
31.966244,3.513213596003071,0.09928854667112046
31.970332,3.5281226905029346,0.09901201879408762
31.974424,3.5379920761280643,0.0988678547033664
31.978511999999995,3.551339604353307,0.09868569355106184
31.9826,3.564354957878745,0.09854346126974252
31.986639999999998,3.573559994104266,0.09847872637593445
31.990672,3.589156273354804,0.09831166508073835
31.99476,3.599823568630544,0.09826365045979746
31.998844,3.6183329483059876,0.09803285196235555
32.002931999999994,3.634261402256331,0.09783365289334485
32.007023999999994,3.6501898562066732,0.0976365134985227
32.01106,3.6670155270320284,0.09742803850605136
32.015092,3.6850705894321996,0.09716706242428791
32.019132,3.6983073927575076,0.09701061254889805
32.023219999999995,3.7097497623327915,0.0968770277301019
32.027308,3.722089348783087,0.09673195651138534
32.031396,3.7355476019082645,0.0965537366839104
32.035436,3.749792347008519,0.0963792354912217
32.039472,3.7723334937837496,0.09608286481673459
32.043504,3.792182989933944,0.09582342739293188
32.047588,3.8109138194092576,0.09560072127974611
32.051672,3.8271744480594054,0.09539145075483332
32.055755999999995,3.8495934522591684,0.09503542941369025
32.059839999999994,3.871558139183658,0.0946514862187805
32.063868,3.897443868308,0.09419728248748678
32.067904,3.9283693063070766,0.09363511280044279
32.071932,3.9541328928559505,0.09312128984345222
32.075964,3.9816909131548495,0.09258524263902512
32.080043999999994,4.0092489334537476,0.09206408689563268
32.084092,4.035799011977699,0.09156675910986299
32.088179999999994,4.059657439876615,0.0910970700315586
32.092208,4.081610709125573,0.09065752294127417
32.096256,4.10334252857466,0.09024066452992388
32.100356,4.1259715648987605,0.08981253369626523
32.104456,4.155102569147812,0.08929998735641162
32.108548,4.182328414746905,0.08881727488704604
32.112644,4.205965392845952,0.08837795896909127
32.116688,4.227021445219898,0.08795811232572423
32.12072,4.239670371018932,0.08766156883820872
32.124812,4.258378365143181,0.08732851653147597
32.128899999999994,4.279999459692333,0.08695044107835372
32.132988,4.30319353819164,0.08658014159795789
32.137076,4.321237182916278,0.08632203056308956
32.141164,4.338051436066101,0.08610826689917883
32.1452,4.3519525887910175,0.08594458542664342
32.149235999999995,4.364624349941118,0.08582378099546778
32.15332,4.379655587016448,0.08571105418072093
32.157408,4.396813432541609,0.08555466974853737
32.161496,4.411058177641863,0.0854439054017333
32.165588,4.42429498096717,0.08535008024829467
32.169632,4.4392154931425685,0.08524987381784842
32.173672,4.456938380842934,0.08511648329732238
32.177708,4.477574368968206,0.0849417109439326
32.181796,4.50190994949346,0.08473019105860113
32.185883999999994,4.5214272709438506,0.08458966570543118
32.189972,4.543857692819146,0.08440808009955424
32.194056,4.569987707094424,0.08419089264916277
32.198083999999994,4.597801430219791,0.0839697978990425
32.20212,4.629646920444944,0.08368199300129725
32.206204,4.6554333423448835,0.08342907004742922
32.210291999999995,4.680433272269746,0.08317943073270719
32.214375999999994,4.7047574351194665,0.08292102517071519
32.218508,4.7312082064190175,0.08261999172477356
32.222548,4.754967327093531,0.08233824040550608
32.22658,4.776932014018023,0.08206995449908368
32.230608,4.798331658767306,0.08178376316483442
32.234739999999995,4.81636388581641,0.08150496045340228
32.238823999999994,4.83148301244061,0.08126751571511207
32.242956,4.84682358886468,0.08101198078534168
32.246984,4.866195932388538,0.0806957330585494
32.251012,4.887473434562354,0.08035873637156851
32.255044,4.90897238653604,0.08000780947672992
32.25908,4.930692788309594,0.07964602005585905
32.263172,4.949721539458114,0.07930731996730922
32.267267999999994,4.970766174156527,0.07894069902893384
32.2713,4.9918108088549396,0.07857858373622645
32.27534,5.008147909378424,0.07826417343410215
32.279371999999995,5.025492951676855,0.07793796786431915
32.283412,5.039703443750511,0.07766491918025707
32.287507999999995,5.052905994049221,0.07740461377154398
32.291599999999995,5.062298227048011,0.07718445767364958
32.29564,5.071690460046803,0.07696612941210348
32.299727999999995,5.083098576595488,0.0767227094522979
32.303763999999994,5.1001114441941136,0.07643251649428345
32.3078,5.12014813711758,0.07610276992528524
32.311836,5.138844713566295,0.07581415081673913
32.315864,5.159114273965163,0.07553123720852004
32.319944,5.181288993013991,0.07523137711853815
32.323975999999995,5.204028754238025,0.07495345512081864
32.328011999999994,5.224752631912167,0.07470687156921138
32.332044,5.244014250536089,0.07444688099924705
32.336071999999994,5.261592160309922,0.07419091700536615
32.340096,5.277043461633927,0.07397249983055319
32.344187999999995,5.2914868211829855,0.07376774085536086
32.348271999999994,5.305032963857033,0.07356938135623035
32.3523,5.3177926145560015,0.07336925742197639
32.35634,5.336267741204847,0.07312034722542284
32.360375999999995,5.351043275453709,0.07289711955238015
32.364408,5.369739851902423,0.07263369531260074
32.3685,5.392246745651055,0.07233771574520147
32.372592,5.418453231799669,0.0720170559141562
32.376628,5.443541051273401,0.07171850542189448
32.380627999999994,5.467510204072253,0.07144523563291233
32.384608,5.4848666640462165,0.07122520514009817
32.388639999999995,5.500993732445364,0.07103533369660416
32.392728,5.515437091994423,0.07084427168067171
32.396815999999994,5.53200705999331,0.07062255277122265
32.400904,5.544090943617136,0.07042047529317234
32.404979999999995,5.558301435690792,0.07018884939667219
32.409004,5.570717494014426,0.06996535961026663
32.413036,5.582912102538187,0.06975853470247019
32.417016,5.593766594587198,0.06958704616739328
32.421091999999994,5.605629028411156,0.06940525075466257
32.42518,5.6215232293349,0.06918019460997578
32.429264,5.637528155158579,0.06894909890321503
32.433291999999994,5.652635864107247,0.06872301098000326
32.437328,5.661806647306171,0.0685571682842362
32.441356,5.673890530929998,0.06836566733328132
32.445448,5.679472446628873,0.06821340465140983
32.44954,5.684157145452736,0.0680656971449019
32.453644,5.688055352301522,0.06791467573253
32.457736,5.692850776025319,0.06776068303778351
32.461776,5.6928279406742535,0.06764541769955688
32.465872,5.698520581273064,0.06748791311453116
32.469904,5.70522116364682,0.0673205826767001
32.473996,5.716629280195505,0.06712284234511602
32.478084,5.730053280294084,0.06690740754484889
32.482172,5.746058206117764,0.0666892777949458
32.486264,5.757577047566384,0.0664875828309561
32.490296,5.769993105890015,0.06628290502782329
32.494392,5.782519889113583,0.06607135599672018
32.498436,5.798181222561925,0.06582202424075728
32.502528,5.809467196535142,0.06557998430537229
32.506628,5.814926969658549,0.06538615083679693
32.510724,5.821283959656969,0.06519097137558058
32.51482,5.827308774955583,0.06501801153351372
32.518851999999995,5.841286399553836,0.06477400923827112
32.522892,5.856161241027101,0.06452957415987169
32.526923999999994,5.876530108650372,0.06426151155546965
32.531015999999994,5.8967882513737075,0.06400260972374394
32.535107999999994,5.9160384523220975,0.06375484646727195
32.539204,5.933715669320332,0.06349816779848992
32.543291999999994,5.956432595193301,0.06319253129507668
32.54732,5.979260245966206,0.06288468733433736
32.551348,5.999285521214138,0.06259204102075128
32.555436,6.018524304486995,0.062298610323284966
32.559515999999995,6.033842045559998,0.062038484049204305
32.563599999999994,6.052405061757714,0.06173946951046436
32.567688,6.072430337005646,0.06145644023992448
32.571724,6.095257987778551,0.06116245679814977
32.575751999999994,6.121563781151566,0.06087016834922049
32.579784,6.1467509078497,0.060596527071832294
32.583811999999995,6.175416177147947,0.06032195074743181
32.587896,6.203970721546259,0.06005196867810152
32.591984,6.229612165519666,0.05980296772446998
32.596072,6.256704450867758,0.05951895509004288
32.600096,6.276962593591095,0.05928628278854176
32.604136,6.297220736314431,0.05905622409579769
32.608172,6.319384037687725,0.05881907049541395
32.612207999999995,6.3415473390610195,0.0585832595161071
32.616296,6.364829307109196,0.05833393531067313
32.620388,6.3899057089073965,0.05808252973931577
32.624472,6.4140848938305846,0.057835740879503286
32.628512,6.437366861878761,0.0575941582681847
32.632548,6.459973062851794,0.057340251250962135
32.636579999999995,6.480452655374999,0.05711049230687506
32.640676,6.499027089248246,0.05688965311452497
32.644772,6.514356247996784,0.05670770218683417
32.648868,6.531922740095085,0.05649800560990227
32.652896,6.548702740218307,0.0562857862340787
32.656928,6.56592563994127,0.056051843478898064
32.660951999999995,6.583259264564169,0.055812864574698084
32.665032,6.600703614087002,0.055568885236491325
32.669115999999995,6.621393238734544,0.055290249981908894
32.673199999999994,6.645217413606863,0.0549845535150362
32.677288,6.668709413779375,0.05469997740231881
32.681328,6.6916363717766805,0.05439704956173839
32.685308,6.711760954249016,0.05410456802887457
32.689387999999994,6.727510177246226,0.053812870074054414
32.693416,6.740678474518337,0.05351776868227492
32.6975,6.752506655315696,0.0532492231344012
32.70158,6.7652320529880665,0.05298158254915097
32.705616,6.778743942635515,0.05272123798957949
32.709599999999995,6.79046139853294,0.052464048848859385
32.713691999999995,6.807562155680435,0.052204010838811335
32.717724,6.825892304402746,0.05192594884731577
32.721816,6.849040712199921,0.05162739688738041
32.725904,6.873307786671978,0.05131697481090429
32.729992,6.895558977594142,0.05102176722145974
32.734032,6.915905009866346,0.050735706114233343
32.738071999999995,6.92930617461386,0.05049055805197148
32.742168,6.941810122486361,0.050246832539904536
32.746204,6.952519636608838,0.050004577800675604
32.750296,6.9611025422814885,0.04978169507343691
32.754383999999995,6.96475646397934,0.04958467418133563
32.758475999999995,6.964710793277207,0.049394612645589434
32.762511999999994,6.965230164750284,0.04922156903085614
32.766544,6.967654694873318,0.049042002219708836
32.770579999999995,6.968739108521601,0.048886190691543235
