Time,Force,Position
6.320367999999999,0.229527779167019,0.0
6.3244,0.20966686534129117,0.0
6.328484,0.18791717057128515,0.0
6.33252,0.17063718247065796,0.0
6.336548,0.15225490540082948,0.0
6.34058,0.1328646865560543,0.0
6.344604,0.1153796263612377,0.0
6.348567999999999,0.09857033324156315,0.0
6.3525160000000005,0.08546063252187076,0.0
6.356488,0.07504258242721384,0.0
6.360399999999999,0.06451380743262203,0.0
6.364432,0.05566874128811901,0.0
6.368356,0.046823675143615996,0.0
6.372324,0.03585200054928472,0.0
6.376292,0.026785484604911963,0.0
6.3802080000000005,0.020521344185509542,0.0
6.384232,0.01504369574118407,0.0
6.3882520000000005,0.010463264171870426,0.0
6.39228,0.007001499277438346,0.0
6.396268,0.00443695125801809,0.0
6.400324,0.002769620113609657,0.0
6.404243999999999,0.0009915640692663525,0.0
6.408212,0.0009915640692663525,0.0
6.412188,0.0010178512757257148,0.0
6.416216,0.017566927604186416,0.0
6.420179999999999,0.05020085348505647,0.0
6.424207999999999,0.09464357666761365,0.011047714150599752
6.428124,0.14740553687621266,0.021269272601478543
6.432156,0.20174048103496564,0.0313386171651326
6.436196,0.2588778007186889,0.040993620694120325
6.440252,0.31612584530234705,0.050598647974271875
6.444252,0.37236594811105844,0.06037012920913329
6.448303999999999,0.42849532601983503,0.07019281249915546
6.452276,0.4799285874292157,0.0810965227354928
6.456304,0.5399139533400408,0.09146565529317152
6.46028,0.6058933333782753,0.10219547764614628
6.464356,0.6824749544944462,0.11289142880454756
6.468319999999999,0.7744770757634174,0.12305927176890254
6.472332000000001,0.8814339622343833,0.13265271872796885
6.476351999999999,0.9980616198816755,0.1419626542818475
6.480315999999999,1.1214241129293223,0.15095938605578246
6.484227999999999,1.2486848128257557,0.15944617905990194
6.488224,1.3639038479450996,0.16805729853436246
6.49228,1.4707594835110238,0.17635240687334475
6.496199999999999,1.5485685525213715,0.18462836704351585
6.50012,1.5962238059767937,0.1930472625478939
6.504143999999999,1.6220787339299312,0.1910760862446935
6.508171999999999,1.6391943606083528,0.19055896971355166
6.512256,1.6682523448394622,0.18998732485212827
6.516336,1.7103827709736739,0.18957672102985967
6.5203,1.770060305710514,0.18878992175143072
6.5243720000000005,1.844005420898674,0.18746206299222604
6.528396,1.9243531967873844,0.1859225689285788
6.532424,2.009496396399893,0.18316247457393608
6.536392,2.077646111909447,0.180981977013466
6.540416,2.1364994497892185,0.1780196402521313
6.544452000000001,2.1740375806131818,0.17486192909224008
6.548431999999999,2.1845450284314616,0.17199853499371137
6.552516,2.1626841626961184,0.17021605187928676
6.556548,2.1294802346098933,0.16899870560969021
6.560636,2.099800119825913,0.16827683156821366
6.564723999999999,2.086139800396538,0.16787597648240726
6.568808,2.1071193808971476,0.16698748159598956
6.572888,2.1508535921527177,0.1662890373772547
6.576911999999999,2.2142957734873434,0.1656251265358372
6.580936,2.297976714049632,0.16463294549806692
6.584972,2.3907291305864424,0.16281032446929808
6.588988,2.4723028461945753,0.1602878169200498
6.593008,2.5234784610968477,0.1579371342056491
6.597032,2.5458175415678803,0.15559107825747487
6.601055999999999,2.534524663883875,0.15369774949190845
6.60514,2.495704567072177,0.1525109168126284
6.609224,2.448366618785633,0.151883275781585
6.613319999999999,2.416227720852019,0.15124752810901468
6.617408,2.4104323211734133,0.15063469253271347
6.621491999999999,2.424046969900657,0.1505619325134637
6.625524,2.468613343833436,0.150502909229256
6.629552,2.540187565420833,0.15049553289937212
6.6335880000000005,2.6401633876598676,0.14966597156290576
6.637616,2.7339237459716257,0.14845958889187144
6.641664,2.802447855027722,0.14694530184030166
6.645692,2.8365192609271057,0.145400373941948
6.649652000000001,2.8301017306956284,0.1441475138896745
6.653671999999999,2.792079543534541,0.14302920398721328
6.657704,2.7397669405710663,0.14190079280036555
6.661784,2.6724231005322614,0.14131520993143135
6.665868000000001,2.606255015546002,0.14135669179707855
6.669892,2.571137962989679,0.14126142549460138
6.673915999999999,2.572489497139963,0.1412741709496577
6.677943999999999,2.608072284647091,0.14155126652848996
6.681968,2.6751604218594283,0.1418198385357538
6.686024000000001,2.777285687899358,0.14139615374897954
6.690084,2.879708875612494,0.14045806485506412
6.694083999999999,2.949630189521008,0.13973325690652807
6.698135999999999,2.984755207897469,0.13876394934844127
6.702100000000001,2.9869890893918383,0.13743894091330805
6.706076,2.947737510655933,0.13644232427247382
6.710104,2.8765719356416777,0.13587160575634552
6.714123999999999,2.78521327210189,0.13591462974723995
6.718148,2.7055526809638537,0.13582827170852613
6.722176,2.6379794253050393,0.1363937635760676
6.7262,2.5902591176518137,0.13759194761307775
6.730175999999999,2.577545137654975,0.1389156397462143
6.734227999999999,2.6058851359642046,0.14001558591474378
6.738271999999999,2.664245389577359,0.1408747506240154
6.742332,2.749888577167271,0.1410974311839619
6.746303999999999,2.837379835029478,0.1406005755268052
6.750308,2.8867530503615892,0.14039195479950803
6.7543,2.896057393811512,0.14004164368289937
6.75828,2.8638306063290293,0.13954394602467723
6.762244,2.8005413687410763,0.13892911948887143
6.7662640000000005,2.69963407660043,0.13904442717959817
6.770288,2.592912001285506,0.13962211202470093
6.774311999999999,2.5073144843977233,0.13984653817395656
6.77828,2.427302335064212,0.14127152980536992
6.7823,2.373202202061501,0.1430696153945073
6.786331999999999,2.363290597589633,0.14436159187541653
6.790384,2.3966588870980643,0.14509836169115511
6.794379999999999,2.4637356066348683,0.145243540130664
6.798436,2.5445262821233183,0.14537024152962072
6.802464,2.637943048059738,0.1445702591072672
6.806411999999999,2.7152292937416176,0.14324107144000003
6.810351999999999,2.7544739687667352,0.1417965780464169
6.81432,2.744001836084405,0.14052637751062513
6.818280000000001,2.6924871427715407,0.13947036246563246
6.822311999999999,2.6076076118056393,0.1388963510704367
6.826332,2.5145652394157625,0.13881704670145448
6.830364,2.441307308978276,0.13856101026228554
6.834336,2.3921212904194378,0.1382140725575868
6.83842,2.366155637566366,0.138498071839599
6.842452000000001,2.3773115031439764,0.1387370337394148
6.846483999999999,2.431182220526678,0.1385186237827826
6.8505080000000005,2.5248090185874337,0.13757104049635782
6.854472,2.632382640075238,0.1368090266017391
6.858552,2.770770974662183,0.1346142638131568
6.862544000000001,2.8855188792946893,0.13221817197773433
6.866572000000001,2.9549367533704043,0.1300808553531696
6.870536,2.9746378197386725,0.12805387616688443
6.874536,2.948920966001281,0.12622021126228647
6.878559999999999,2.883115856886031,0.1249540061289641
6.882528,2.7980377114713257,0.1243347155664779
6.88656,2.7274714316588753,0.1236890327665141
6.890588,2.679736254474723,0.12302564576306416
6.894616,2.6638500193711177,0.12266338334924493
6.898639999999999,2.6890063448980475,0.12230208105713279
6.902667999999999,2.75395300412963,0.12173479920680687
6.906695999999999,2.8561855432141012,0.12072290982112287
6.91072,2.9798748154255197,0.11967640580071959
6.914744,3.1081723145874647,0.1187357301447474
6.918828,3.225058245345332,0.11714413529785232
6.922823999999999,3.298985039147172,0.11558483001122741
6.926844,3.323870792316706,0.11390698018510055
6.9308000000000005,3.2902239646307416,0.1125954323386435
6.934767999999999,3.2159124217161783,0.1115338115100558
6.9388,3.1130006637011722,0.11098161231346186
6.942828,3.028189638788467,0.1104041554003812
6.946856,2.9627544092550133,0.11023545583935795
6.950931999999999,2.9320812222270125,0.11035109701042656
6.954964,2.943336395029025,0.11051449342466418
6.958932,3.004793493984962,0.11025492796130425
6.962955999999999,3.1083547318686513,0.10956662040608024
6.966976,3.2279779839536844,0.10891574869048282
6.970944,3.3593871979893386,0.10823750842226844
6.974963999999999,3.4769260604712824,0.10713957165617272
6.978903999999999,3.5487148281477614,0.10599285821582961
6.982956000000001,3.569690956792977,0.1047335009666563
6.98688,3.5263083037328835,0.10374774617885657
6.990848000000001,3.4347510257442915,0.10305083910813055
6.994827999999999,3.3269102837544864,0.10244189487370171
6.998848,3.2310004816418343,0.10192756232469408
7.002871999999999,3.1684897702088195,0.10162360103854226
7.006835999999999,3.144895010956511,0.10163772753783006
7.010803999999999,3.1701734790589082,0.10161321437607074
7.014703999999999,3.2434051222899334,0.10135075604074845
7.018731999999999,3.345381958547936,0.10091522459121646
7.022708000000001,3.4527535137315426,0.10054318710460237
7.026708,3.568509360138994,0.09976738071277569
7.030679999999999,3.657734511518166,0.09886792751581662
7.034619999999999,3.7020188954180164,0.09801869309435693
7.038624,3.6911381161625467,0.09721508412588742
7.042568,3.617704406627323,0.09665194066339902
7.046475999999999,3.5052132188402534,0.09651190834891214
7.050448,3.3835284125031957,0.09651720936144517
7.05442,3.291298819294854,0.09659099470836742
7.058452,3.2446857606409774,0.09666755993205607
7.062432,3.243234919266291,0.09674241652004499
7.06646,3.2910773694949844,0.09664718506245773
7.070424,3.3758506895256954,0.09630135865772955
7.074452,3.4703940879571356,0.09591358072876649
7.078447999999999,3.5594434602385694,0.09562346356345902
7.082439999999999,3.6205112961170376,0.09522619403798219
7.086491999999999,3.646851342516652,0.09468608748364643
7.090495999999999,3.6403801757629046,0.09410124619026944
7.094468,3.6086305409067596,0.09352018287891699
7.098448,3.5613839340244784,0.09299903450430025
7.102476,3.5188448613171257,0.09242354372694903
7.106507999999999,3.48149047541104,0.09198034993297276
7.110536000000001,3.4637983888818793,0.09157170961057509
7.1145000000000005,3.4755272624548357,0.0911038420644589
7.118476,3.516688513805445,0.09066180172175399
7.1225,3.5886222594084574,0.09016469484134944
7.126447999999999,3.6807376758614687,0.08926200015765737
7.130439999999999,3.7576997126636815,0.08840326906829282
7.134491999999999,3.8115213074888588,0.08760908520651951
7.138464,3.844894110962034,0.08682724326008584
7.142432,3.858283858034014,0.08615913454753657
7.146463999999999,3.8574174423302074,0.08557568737154637
7.150436,3.8425277313260158,0.08510920868678681
7.154516,3.8250570945967235,0.08465832504829342
7.158592,3.809602341417325,0.0841668608120578
7.162615999999999,3.8120040361892937,0.08365675413895429
7.166636,3.8310327873378136,0.08316634441144688
7.170599999999999,3.854349008412588,0.0828199780537087
7.174644,3.879016763637647,0.08251593637932711
7.178688,3.9022222598124867,0.08220065665773424
7.182720000000001,3.9129774446370957,0.08200920362110357
7.186748000000001,3.922148227836018,0.08173899799302653
7.1907760000000005,3.930753968859733,0.0814500339867404
7.194852,3.9337549588335072,0.0812333871235881
7.198935999999999,3.9348507901573235,0.08104384467544429
7.203015999999999,3.935270854405997,0.08084034130466418
7.207047999999999,3.932556368429896,0.08070165567477819
7.211016,3.9329650150030364,0.0804041725274851
7.214987999999999,3.9196825409755975,0.08014933936157362
7.219040000000001,3.9072972838231705,0.07988530355093329
7.22296,3.8996309785212047,0.07964905048320138
7.226932000000001,3.901058984544825,0.07941984320753571
7.230923999999999,3.9192019364938657,0.07909993056087383
7.234955999999999,3.946660649568362,0.078765475033327
7.239036,3.97759750524297,0.07841869091533879
7.243108,4.00662920226762,0.07809917512499916
7.247191999999999,4.040036258767395,0.07776051287115153
7.251276,4.072202506016819,0.07736654413730892
7.255247999999999,4.0825912631150265,0.07697873314091702
7.259296,4.079621074312457,0.0765898291361306
7.263267999999999,4.075066483884201,0.07610581898867105
7.267264,4.064574967706199,0.07573218889381282
7.271316,4.062612720678576,0.07535423114231515
7.275339999999999,4.069179742801332,0.0749652626091592
7.279412,4.085283975849413,0.07455143961836624
7.283435999999999,4.10407985952253,0.07412435264158404
7.287463999999999,4.123330060470919,0.07372942311899341
7.291543999999999,4.152018165120232,0.07339091357344484
7.295628,4.187097512794562,0.07298363479072272
7.299615999999999,4.205572639443407,0.0726373311755782
7.303707999999999,4.219317396566258,0.07217946921261116
7.307683999999999,4.219481757988464,0.07174449825090494
7.311708,4.209887458685475,0.07137554587378839
7.315772,4.197257916382111,0.07098675788507883
7.319804,4.186533532728706,0.0705851890853061
7.323835999999999,4.175587699275433,0.0702038512422322
7.327812000000001,4.160610098722372,0.06988172242796332
7.331840000000001,4.154726809494897,0.06957193439059323
7.335923999999999,4.168383677068879,0.06931452193657454
7.339951999999999,4.188099612968073,0.06903574320005999
7.344008,4.203218739592274,0.0687930061819587
7.347995999999999,4.214848305940829,0.06847739442379665
7.351964,4.212786751688805,0.06818420198527049
7.35596,4.204543986536099,0.06784063432318453
7.360008,4.185191026507914,0.06750845075419484
7.364088,4.16001186562992,0.06724447394406906
7.368116,4.139208064227048,0.06696956312256107
7.372032,4.11459394552426,0.06673278873353775
7.37606,4.098409788747448,0.06657666323357839
7.380036,4.0952409854960745,0.06638799495113237
7.384035999999999,4.091407832845093,0.06626232488028828
7.388132,4.088914796668861,0.06608708380957395
7.392052,4.0819242584420365,0.065851332054992
7.39604,4.067755985215118,0.06564929990462896
7.400035999999999,4.047417918763053,0.06546499884218179
7.403996,4.033913994935744,0.06520364808580802
7.408027999999999,4.025117605283365,0.06490373196246577
7.412052,4.01732915740593,0.06459280324411507
7.41608,4.0172834867038,0.06428344947048586
7.420108,4.022632534927272,0.0640272318432697
7.424031999999999,4.03067323377578,0.06375624431635366
7.428076,4.033552081174086,0.06348288986898558
7.43208,4.031601251821996,0.06317299404330695
7.436124,4.023824221620096,0.06292498076005416
7.440116000000001,4.02042255089332,0.0626712048177859
7.44408,4.025428006741455,0.06235720267017426
7.448104,4.030322737689654,0.06205741619545396
7.452072,4.0432924205129614,0.061730688092828306
7.456091999999999,4.063772013036167,0.06135386985346402
7.460064,4.088184065434757,0.06101433262001072
7.46404,4.107102091683342,0.06069886773515002
7.468008,4.120747541581791,0.06038937977805882
7.471927999999999,4.127669573755417,0.060139996910880573
7.475924,4.1349237806288475,0.05985668052465426
7.479843999999999,4.145766855002327,0.0595636739239251
7.483864,4.154372596026041,0.059326949487390715
7.487827999999999,4.168361638299828,0.05908151663556317
7.4918,4.1857180982737905,0.05885102014815451
7.495779999999999,4.200936532122393,0.05858566354781181
7.499752,4.215368473995918,0.05831335649421134
7.503723999999999,4.227895257219485,0.05805319477153848
7.507687999999999,4.239081923968301,0.057829096927941415
7.511612,4.2505014581925185,0.05765927596069423
7.515527999999999,4.266517801691732,0.057466272154474966
7.519492,4.2796210447660386,0.05730242199250718
7.523464,4.290819129190387,0.057157009574303065
7.527503999999999,4.306835472689599,0.056974874681233155
7.531531999999999,4.322065324213735,0.05679067068532108
7.535504,4.332919816262746,0.05661292026319195
7.539471999999999,4.341414832386526,0.05641457782849288
7.543435999999999,4.354617382685235,0.0561845175212336
7.5474,4.369957959109304,0.055992808570460025
7.551379999999999,4.388776678133488,0.05579902231882233
7.555404,4.407152497557931,0.05564421372340727
7.559384,4.42071005790751,0.055528622084413004
7.56336,4.427876375232072,0.055436129191457954
7.567331999999999,4.429770116206497,0.055347510764531975
7.5713,4.426723455530592,0.055232752728182156
7.575264,4.41728555182967,0.05513976782233008
7.579292,4.408069097928616,0.05502759156324955
7.583263999999999,4.403006553702816,0.054934393583221906
7.587288,4.404113802702163,0.05483773672821811
7.591247999999999,4.409031369001431,0.05471335077421528
7.595216,4.411035834875792,0.054613287637272176
7.599187999999999,4.414834734500176,0.054510184052225116
7.603172,4.415266216424382,0.05439509250032534
7.6072,4.409306455323571,0.05430258443027703
7.611228,4.398971334747635,0.054209167903597484
7.615191999999999,4.384936621771718,0.054131262077670834
7.619155999999999,4.369783242120919,0.05407278133341833
7.623079999999999,4.355981396620405,0.054047657446457315
7.627047999999999,4.347673577269895,0.054004230102907606
7.631023999999999,4.342057408544423,0.053956207063214155
7.63506,4.338567848268776,0.05387658439980888
7.639088,4.340904488842941,0.053751368487396936
7.643116,4.348170113391905,0.05358187331722609
7.647084,4.350728203765939,0.05343819559703391
7.651048,4.352056902565158,0.053324576957744445
7.655019999999999,4.357195918664294,0.05318725426902322
7.658983999999999,4.364018643613518,0.05305803396123441
7.663016,4.368936209912784,0.052939902625741636
7.667036,4.372735109537167,0.05284122601443183
7.671067999999999,4.379004209986717,0.052758093960538884
7.67504,4.388186410861173,0.052652169711331076
7.678964,4.39680356956042,0.05251989706605395
7.682939999999999,4.406207220234746,0.052396469524763165
7.686903999999999,4.414824378933995,0.052265212856543286
7.690928,4.422212146058426,0.052163380611127796
7.694959999999999,4.425003103907863,0.05207547304614675
7.698984,4.427683336857366,0.0519966641777622
7.702951999999999,4.432268728456826,0.051906071474785084
7.706924,4.434727511606459,0.05184651754517247
7.710895999999999,4.43584617828134,0.05182609524082412
7.714868,4.436743395156352,0.051824949868479055
7.718848,4.43472751160646,0.05184611336534899
7.722884,4.430695744506673,0.05188786730063537
7.726859999999999,4.428569136056844,0.05191834123793664
7.730884,4.426774702306821,0.05192041063705056
7.734851999999999,4.42094850145701,0.05196442717013558
7.73882,4.414003633932318,0.05202794981903704
7.742795999999999,4.410082591732467,0.052060199988148856
7.746764,4.409971866832531,0.05206960659168966
7.750792,4.408177433082508,0.05207158188572347
7.754831999999999,4.405375057557538,0.05208385353697988
7.758859999999999,4.39854091493278,0.05213775492195166
7.762884000000001,4.390920280332946,0.05218293056764671
7.766915999999999,4.383078195933242,0.05224689787984661
7.770936,4.375679011133278,0.0522732825293965
7.7749,4.376686952908225,0.05226294183717316
7.778928,4.381505211983089,0.05223020219835626
7.782951999999999,4.388117904807976,0.05219623038822305
7.786976,4.400446073582739,0.052130021908642486
7.791011999999999,4.416130242382146,0.05200568805239838
7.795032,4.432822352956501,0.051871926422481486
7.799067999999999,4.446490638206015,0.05176716923623285
7.803095999999999,4.46015892345553,0.05166288207793546
7.807128,4.476629584230014,0.051547861393711245
7.811091999999999,4.492657345404759,0.051469434320220865
7.815116000000001,4.510811715029333,0.05136094473837684
7.81914,4.526606608728676,0.05122761101382186
7.823163999999999,4.542180052628148,0.05111388252642301
7.827188,4.555848337877662,0.05101171760661006
7.831216,4.573105490627223,0.050907548695869324
7.835247999999999,4.591481310051666,0.05078552138877035
7.839272,4.614675388550973,0.050631830635567705
7.843296,4.639553175900368,0.05048687731268169
7.847323999999999,4.663755196174622,0.05032421865619292
7.851347999999999,4.687957216448876,0.05016362445408941
7.855376000000001,4.708348919423211,0.05002583091332467
7.859404,4.725151754897502,0.049891767578057265
7.863435999999999,4.742065315271725,0.04975160286735318
7.867472,4.748555865521145,0.04966055060672429
7.871503999999999,4.75471424107076,0.04959654762060188
7.875523999999999,4.760540441920571,0.04955884529457543
7.879556,4.7689361508199495,0.04945890339758361
7.883579999999999,4.774750933994227,0.049351510071044824
7.8876,4.777087574568392,0.04923776868851748
7.891628,4.782669490267267,0.04908030161917401
7.895656,4.789148622841155,0.04892307169250293
7.899676,4.797200739365195,0.04878226876502241
7.903704,4.806482247464051,0.048616718240375015
7.907732,4.816771697337854,0.0484428518545324
7.911756,4.8223536130367295,0.04828766553715086
