Time,Force,Position
7.616963999999999,0.5045733482646128,0.004194407623198165
7.621047999999998,0.4769810749391159,0.0021156443820464325
7.62508,0.45319911891353604,0.0
7.629163999999999,0.43121159663798003,0.0
7.633199999999999,0.4147181005124298,0.0
7.6372399999999985,0.3978924296870749,0.0
7.641272000000001,0.3858850179365837,0.0
7.645308,0.37499627286097414,0.0
7.649395999999999,0.36702062821026976,0.0
7.653483999999999,0.35882353375969556,0.0
7.657571999999998,0.35443675660903845,0.0
7.661608000000001,0.34982852965851163,0.0
7.6656520000000015,0.3439909111331683,0.0
7.669684,0.33524019218291984,0.0
7.673724,0.3267109230325411,0.0
7.677816,0.3189681458572393,0.0
7.681851999999999,0.3167193948319434,0.0
7.685939999999999,0.31514641088178946,0.0
7.690028000000002,0.30785795098176,0.0
7.694116000000001,0.2998937240065885,0.0
7.698204,0.28901639660651174,0.0
7.702231999999999,0.27826121178190266,0.0
7.7062680000000015,0.26886897878311067,0.0
7.710304000000001,0.27004473383565647,0.0
7.714388,0.2770923604401441,0.0
7.718475999999999,0.29797608557174515,0.0
7.722563999999998,0.3309128931559688,0.007180011542158642
7.726592,0.3784837089179155,0.014497650697413725
7.730619999999998,0.4424715489320762,0.021574396584916746
7.7347,0.5199633127735457,0.02871563349970074
7.738776000000001,0.6101725084672471,0.03585840002313315
7.742856,0.7134313107129847,0.043016645256364935
7.746939999999999,0.8333285870108063,0.05011052313150198
7.751024000000001,0.96852422088596,0.05721569832445153
7.755071999999998,1.1180102705634996,0.06437290261099912
7.759111999999998,1.2838026195933183,0.07146167564416582
7.763152000000002,1.4638853844255226,0.07849349336663486
7.767184,1.6610609405850831,0.08548942852550187
7.771276,1.8791396053719165,0.09241369321141495
7.775312,2.1155404530609223,0.09928874878580897
7.779399999999999,2.367793282826935,0.10614199697781622
7.783487999999998,2.6279224500192506,0.11301858697431039
7.787576000000001,2.8929920188618974,0.11987199846877225
7.791668000000001,3.15266686877894,0.12673004178629438
7.795663999999999,3.408497148369467,0.1335616263096041
7.799720000000001,3.6571040222577684,0.14030035568358057
7.803751999999999,3.894776480368329,0.13979213382509564
7.8078,4.124316898226119,0.13904202876665958
7.811831999999999,4.340131942456729,0.13849481778629374
7.815860000000001,4.54434822150999,0.13786220809774338
7.819891999999999,4.7349498518360065,0.13723213674474632
7.823931999999999,4.914395616584413,0.13651947669317158
7.827960000000001,5.076626447429995,0.13584469672125607
7.831992,5.222761011047637,0.13513166567923268
7.836020000000001,5.354815190987227,0.13431835633016073
7.840104,5.467749278374037,0.13357124709486243
7.844139999999999,5.563922749133295,0.13286759755060315
7.848112,5.64501931211509,0.13217896295164902
7.852091999999999,5.7094774010448015,0.1315754882172474
7.856131999999999,5.761561650497619,0.1309982370896726
7.860164000000001,5.8031772191235005,0.13040360038223053
7.864256000000001,5.839264508572777,0.12973909869615682
7.868344,5.867254010795883,0.12908954590670282
7.872375999999999,5.891521085267939,0.12839430382081932
7.876415999999999,5.910725615514197,0.12769888308719912
7.880444000000001,5.919827892659923,0.12710665499659426
7.884467999999998,5.923989768155316,0.12655723755197454
7.888548,5.9167092740754255,0.1261513087719295
7.892588,5.901686002820233,0.12582950921153044
7.896675999999999,5.887670673339988,0.1254870214508661
7.900724,5.875904094885038,0.1251424987047568
7.9047519999999984,5.866065510431112,0.1248776338000227
7.908832,5.863538221228282,0.12461975250837014
7.912915999999999,5.870559560626311,0.12431457625638573
7.916944000000001,5.883540661125149,0.1240109473530699
7.920984000000001,5.898770512649285,0.1237042595350012
7.925076000000001,5.913546046898148,0.12337615763555504
7.929103999999999,5.926515729721454,0.12301760699796427
7.9330919999999985,5.934422868318963,0.12264472054224018
7.937124000000001,5.9362595209157245,0.12228044256808479
7.941155999999999,5.933045046962218,0.12196053909695045
7.945204,5.930052022808584,0.12162759094110176
7.949300000000001,5.928521257705167,0.12129806924526947
7.9533960000000015,5.929804285802255,0.12098404249142079
7.9574919999999985,5.935916990649737,0.12064782922195134
7.961524000000001,5.951234731722742,0.1202438279970445
7.965612,5.970595657571066,0.11982133895982316
7.969647999999999,5.996015651744603,0.11933646031869989
7.973739999999999,6.027151121868015,0.11875928530254608
7.977831999999999,6.05402195741624,0.11822101040778368
7.981919999999999,6.082110766863746,0.11760071937428147
7.985952000000001,6.106144973860401,0.11694780273707521
7.989984,6.1251166366312555,0.11628512493247117
7.994067999999999,6.132756654726762,0.11573457393675912
7.998152000000001,6.136242763147014,0.11521517243712798
8.002236,6.144325680842261,0.11464175112706937
8.006319999999999,6.154435899762932,0.11408673769568647
8.0104,6.166462695009096,0.11355905512583152
8.014475999999998,6.187018759405636,0.1129677873559983
8.018515999999998,6.211507283677564,0.11236760521960339
8.022604000000001,6.236893024824503,0.11175570060542117
8.026692,6.258800623371329,0.11118104377524937
8.03078,6.280475354442752,0.11057334973648002
8.034876,6.2975418585636485,0.10997045555396764
8.03896,6.307541352584385,0.10943416393127066
8.043047999999999,6.313497661829802,0.10891791465292332
8.047139999999999,6.313959944925213,0.10846200964614966
8.051224000000001,6.316327386670583,0.10798285846251554
8.055304,6.319149145691226,0.10752691758375164
8.059391999999999,6.326346264186993,0.10703562792364668
8.063472,6.329068715983233,0.10664003685663072
8.067556,6.334150643704704,0.10624183082904054
8.071636000000002,6.33778173005149,0.1058885990537552
8.075664,6.346231075473138,0.10546773606460164
8.079704,6.350980828494806,0.10508647728980114
8.083804,6.351465946941284,0.10473486187151476
8.087896,6.350378081437606,0.10438505564315369
8.091923999999999,6.346598565308893,0.10405989910026195
8.096011999999998,6.3364278061551635,0.10380018314115075
8.100100000000001,6.325581279926291,0.1035333178129341
8.104188,6.3132724946472,0.10325847781755246
8.108224,6.297374841868063,0.10301459940124832
8.112303999999998,6.277666871789007,0.1028171142678436
8.116388,6.261326319410129,0.10260112704993057
8.120487999999998,6.249471851406311,0.10234408717551792
8.124576000000001,6.235269325152795,0.10214015448082246
8.128668000000001,6.223979899324184,0.10189538000568749
8.132752,6.207196447345567,0.10170521253556707
8.13684,6.186148360791761,0.10153846512361205
8.140927999999999,6.162630073412788,0.10137817203973704
8.145019999999999,6.140673352308437,0.10116259045131368
8.149107999999998,6.117143647253931,0.10094587372334535
8.153196000000001,6.0986536510741605,0.10065125910949171
8.157284,6.0808394219695305,0.1003633794497089
8.161376,6.0705351025648,0.09999157669707404
8.165464,6.061471592410418,0.09964233052594343
8.169556,6.054202516006062,0.09927796896597875
8.173644,6.047941381376651,0.09889717197095012
8.177731999999999,6.042688188522187,0.09849885206601858
8.181816000000001,6.035640561917701,0.09811431144303981
8.185904,6.032071077913326,0.09770700595925258
8.189996,6.033209128083879,0.09724656694492746
8.194092000000001,6.039386887129166,0.09671217248920218
8.198187999999998,6.044999603999244,0.09616624759330944
8.202276000000001,6.053071104018957,0.09556680752546991
8.206364,6.061696228538344,0.09492692724663074
8.210460000000001,6.072005061907819,0.09428252609665959
8.214552000000001,6.08691070455229,0.09359527812516913
8.218647999999998,6.108994082196855,0.09285688770992899
8.222743999999999,6.130745285141614,0.0921412422780195
8.22684,6.15216431338657,0.09144915348969865
8.230927999999999,6.174480558506536,0.09075240821560264
8.235024,6.194215877901404,0.09007527352771803
8.239116,6.215291313771022,0.08936881391847276
8.243203999999999,6.232212839965385,0.08867808815362888
8.2473,6.246996340034387,0.08796903467757679
8.251396,6.260993348128313,0.0872617683061104
8.255536,6.280816557072047,0.08649905630467089
8.259671999999998,6.3050151254909075,0.08571936085948352
8.263763999999998,6.3319053445348015,0.08492504106521834
8.267852000000001,6.360811447128589,0.08411553321666669
8.27194,6.390725491497325,0.08330292271378376
8.27598,6.418623652316167,0.0825227919322497
8.280068,6.440695612285199,0.08179909178029289
8.28416,6.458735805154444,0.0811293146220904
8.288256,6.480364865523737,0.08044376000980823
8.292352000000001,6.500310217042941,0.07976301796078725
8.296448000000002,6.520477018362015,0.0790739469043593
8.300543999999999,6.535149793531081,0.07842267522830657
8.30464,6.551051960274966,0.07774739263248187
8.308736,6.568970010568743,0.07705216975665743
8.312767999999998,6.583188468462538,0.07637860811628538
8.316856000000001,6.5953910428064395,0.07572764357382555
8.320944,6.600980924325453,0.07512502952367012
8.324984,6.608033064894686,0.07453673461909066
8.329024,6.618563348064031,0.07394129611089231
8.333051999999999,6.6280856894584295,0.07335707376024769
8.33708,6.629090179377982,0.07283602637668236
8.341107999999998,6.6237034262725185,0.07234699894968999
8.345147999999998,6.617530181191978,0.07185566989125085
8.34918,6.606649401936508,0.07139568300110377
8.353207999999999,6.5898316969312924,0.07098799970490999
8.357292000000001,6.569879441701302,0.07061512423782398
8.361324,6.555531937521252,0.07020638915815094
8.365359999999999,6.541860200416343,0.06980689244023476
8.369404,6.524378146011518,0.06943298048944828
8.373460000000001,6.509698467131664,0.06904250316838337
8.37746,6.495916005126821,0.0686494800851869
8.381492000000001,6.483141484896926,0.06824495962263727
8.385539999999999,6.470477689566963,0.06783314969585735
8.389568,6.456916677361989,0.06742396853549114
8.393548,6.450079082881839,0.06696901631082372
8.397592,6.443917255476831,0.06652291681595274
8.401636,6.443138729321893,0.0660591676519517
8.405676,6.441241536492074,0.06561215980348449
8.4097,6.435755476162206,0.06517529292162402
8.413736,6.430490865632209,0.06472427037541435
8.417763999999998,6.429823064377207,0.06425344848517889
8.421696,6.4359894057469615,0.0637340252318996
8.425692000000002,6.440926355541899,0.06323682840590555
8.429739999999999,6.445531130637033,0.06275728348205029
8.433788,6.45495416480703,0.062245775294172544
8.437832,6.46639308252692,0.06171445772740846
8.441887999999999,6.476602608671993,0.06120692770449271
8.445948000000001,6.482104600642138,0.06071983417971079
8.449995999999999,6.489290301462373,0.06023463108103987
8.454048,6.492444235182821,0.059784965696301866
8.458099999999998,6.489329068453717,0.05939949818124966
8.462195999999999,6.486668218999886,0.05903840709095603
8.466244,6.485137453896471,0.058714660233813575
8.470292,6.481037180743486,0.058440322205832215
8.474332,6.474367399540934,0.05821713530626036
8.478368,6.470499993863354,0.05798247405818671
8.482408,6.471229397460766,0.05773558051666816
8.486460000000001,6.471958801058178,0.05748888362716991
8.490504000000001,6.47415046370581,0.05725819341707011
8.494547999999998,6.476796443628714,0.05705203439510205
8.498591999999999,6.47429198977695,0.056891482840369496
8.502635999999999,6.46731286922566,0.056788782796707536
8.506616000000001,6.464033341074352,0.05667427031312325
8.510656,6.468152997723006,0.0565371651485
8.514703999999998,6.471940479671858,0.05641989606240886
8.518756,6.479316829120757,0.056298564576437234
8.522748,6.488819787019482,0.05615681031291384
8.526784,6.50695132129299,0.055973926457586615
8.530816000000002,6.528893172866415,0.055776626348853595
8.534852,6.554534616839822,0.05556968593600617
8.538884,6.5860022616630385,0.05533073009099491
8.542915999999998,6.6195965149360845,0.05507267140562871
8.546948,6.651617784258977,0.05480558311560608
8.55098,6.68778154558159,0.0545036239895945
8.555012000000001,6.723269539829061,0.05419137458827976
8.559035999999999,6.755844433651628,0.05389635556722717
8.563064,6.777099100474379,0.05364416706670999
8.5671,6.795219217072353,0.05341847686933346
8.571128000000002,6.813228608770393,0.05319922026754805
8.575168000000001,6.8340403759934025,0.05297277488763769
8.579204,6.861575560941235,0.05271517165938022
8.583236,6.893142512988854,0.05243076338691354
8.587276,6.919780481061673,0.05217628503729533
8.591308000000001,6.938011322559584,0.05194923352858584
8.595348000000001,6.956242164057492,0.05172322255641054
8.59938,6.972567846905444,0.051506957794170645
8.603428000000001,6.984751037753674,0.05132429939646943
8.607472000000001,6.992902461502118,0.05117003194956448
8.611512000000001,6.995006234600881,0.05105597516668894
8.615544,6.99531557394962,0.05094348338945514
8.61958,6.992711812873456,0.05084474235562325
8.623608,6.988989385122407,0.05075873115520044
8.627588,6.984369740496346,0.050673017387318296
8.631668000000001,6.977734212320394,0.05060013235322705
8.635752,6.970201467269429,0.050527394123001404
8.639844,6.963565939093475,0.050454062564386386
8.643932,6.964440320617421,0.05035930106216952
8.648024,6.969346469241154,0.050238834470084086
8.65212,6.975482009439703,0.050100480207121614
8.656216,6.976012798588312,0.049976340778344515
8.660312000000001,6.974970603786766,0.04984179818780956
8.6644,6.968212933035345,0.04972670700212579
8.668492,6.961000945008652,0.0495873512580191
8.67258,6.95490762365684,0.04943482983947176
8.676672,6.943431001054957,0.049282945487513205
8.68076,6.926128177603264,0.049155875794322304
8.684843999999998,6.909157528851376,0.04900985089348719
8.688928,6.8883765627995714,0.04887622739864894
8.693016,6.867141279472493,0.04871745797420746
8.697104,6.841198461970487,0.04857080662441004
8.701196,6.81267471874338,0.048417437956778026
8.705283999999999,6.78067283291616,0.04825749264695563
8.709375999999999,6.7456471217641,0.048115600473875524
8.713463999999998,6.708826976862017,0.04797305853994878
8.717559999999999,6.669204456434964,0.047835349499766935
8.721656,6.6230799680829575,0.04771018332438469
8.725756,6.568659078055975,0.04759737290853745
8.729848,6.5059417863540165,0.047496508122903486
8.733944000000001,6.437509018702182,0.04741343895238152
8.738040000000002,6.369297700850217,0.047315053302835336
8.742132000000002,6.296157399023455,0.04724019479433232
8.746227999999999,6.223127822096627,0.04715722122848116
8.750323999999999,6.1496553455700615,0.047099036980400605
8.754415999999999,6.0712538850686935,0.047067661323344445
8.758507999999999,5.994536133417418,0.04704196169178774
8.762547999999999,5.915237456041041,0.047011573591358956
8.766580000000001,5.83201773646481,0.04700167325914469
8.770612,5.748798016888579,0.04699381961477446
8.774656,5.665246122612545,0.04700703958234818
8.778756000000001,5.583377937186601,0.04702894877372583
8.782792,5.503193460610743,0.04705743020121784
8.786836000000001,5.423684751110028,0.047099136205462855
8.790868,5.344176041609314,0.047143737331746205
8.794899999999998,5.260857014808682,0.04720510843278459
8.798932,5.178103030183258,0.047292294110539694
8.802972,5.100953796607773,0.04736396841189698
8.807047999999998,5.030195806057306,0.04742653423185313
8.811088000000002,4.967623492281882,0.04747983313084905
8.815068,4.904940453606522,0.04754356227421677
8.819047999999999,4.841814515331422,0.04764172782230368
8.823080000000001,4.777459185481505,0.04777097918880155
8.827116,4.714787564481679,0.04790838729885099
8.831156,4.656036985681703,0.0480185905991458
8.835187999999999,4.606701475231586,0.04809349931155172
8.839224000000002,4.558152456756545,0.04817871508969305
8.843267999999998,4.518010564856416,0.048236475807264756
8.8473,4.482354757331345,0.0482958613601351
8.851332,4.451517208881139,0.04832721996723541
8.855367999999999,4.421687602205879,0.04835031930329137
8.8594,4.395668312830536,0.048354691367526195
8.863432,4.371664907005087,0.048339552528136646
8.867456,4.347661501179638,0.048324316694761345
8.871483999999999,4.328476354429052,0.04828029562022287
8.875508,4.31410946675333,0.048206800886028044
8.879584000000001,4.302766404402449,0.04810459907209619
8.883664,4.29321777580159,0.0480018494691405
8.887695999999998,4.281653263650838,0.047917693240659295
8.891736000000002,4.26908080972514,0.04784294537932149
8.895764,4.261105165074435,0.04775785932937693
8.899808,4.254248187098613,0.047652823633689514
8.903839999999999,4.252320193097589,0.04750721037812715
8.907924000000001,4.248487040446606,0.04737053884978542
8.91196,4.241740787370718,0.04725354778092123
8.916,4.2264766828199845,0.047176606931211236
8.920031999999999,4.212331244944132,0.04707907729351748
8.924012000000001,4.198861574143422,0.04700128383223709
8.928052000000001,4.186621294917528,0.046893186242962744
8.93208,4.173483798816623,0.04678424262746098
8.936108,4.159449085840705,0.04667407642457336
8.940024000000001,4.141714780464805,0.04657293057454232
8.944056,4.121964591539012,0.04649046193551513
8.948056000000001,4.1003092439632605,0.04641740292138444
8.952044,4.072938420437634,0.04637347971306285
8.955967999999999,4.044448930237125,0.04634846068624039
8.959912,4.010133239186806,0.04636626637036038
8.963947999999998,3.970212797086547,0.0464051254240869
8.967987999999998,3.930292354986287,0.04644659228579853
8.972016,3.885885828510968,0.046488440583315846
8.975992000000002,3.837890434535602,0.046530609081830335
8.980035999999998,3.7907922574352475,0.04657309273574833
8.984016,3.739994487934911,0.046625674079435665
8.987995999999999,3.6885209513594326,0.04665601545893741
8.992087999999999,3.634245039258984,0.04670025736369195
8.996116,3.5866925448833573,0.04669765962437452
9.000156,3.5362269500828254,0.04671895345645444
9.004192,3.4803780540322227,0.04674014561840083
9.008223999999998,3.4204973908818332,0.0468108928951702
9.012263999999998,3.3546798019816984,0.046948803835234365
9.016308,3.2906566468315877,0.04708804248813915
9.02034,3.225625549906529,0.04724603258653042
9.024376,3.160594452981471,0.04740593585828842
9.02846,3.094555414281466,0.04759299440874207
9.0325,3.0350183435064135,0.04775198890044212
9.036528,2.9763784896063736,0.04791223064196502
9.040556,2.9245727783310906,0.04800579225271189
9.044588,2.87926903498076,0.048070542808469785
9.048624,2.8353054081051807,0.04807543547643812
9.052648,2.7959385905045955,0.04806388419354475
9.056672,2.761168582179004,0.048036068309129716
9.060707999999998,2.7246041401033896,0.04800789532012575
9.064736,2.6889369149027864,0.04797909721151181
9.06878,2.6557398905273484,0.04797977682903068
9.072807999999998,2.62725040032684,0.04795006040933907
9.076844,2.5959585346013614,0.04793026805104971
9.080876,2.5702714199258234,0.04788070101537255
9.084916,2.5482838976502675,0.04781442056643272
9.088952,2.5302174175745633,0.047702366429603904
9.092987999999998,2.5188743552236805,0.04752761482473421
9.09702,2.5076420177727337,0.04733508019548581
9.101052,2.4993227807466916,0.047107139320419725
9.10508,2.4919007605956613,0.04687688306062903
9.109108,2.4922100999444003,0.04656368109488399
9.113148,2.486128196268122,0.046262132853946925
9.117176,2.4818407263418667,0.045961116272166695
9.121208,2.4747508808906415,0.04567382244219853
9.125236,2.462277734189345,0.045379964548679104
9.129268,2.4473458043384158,0.04518246587880463
9.133299999999998,2.4293900491626466,0.045033636276253834
9.137328,2.4095291353369186,0.044899551898243406
9.141364,2.38966822151119,0.04476202346986578
9.145395999999998,2.3735069000854447,0.04460708165375182
9.149444,2.355772594709545,0.04441176729868471
9.153476,2.3331093053588474,0.04428552071097431
9.157524,2.3102245662082797,0.04419464393079537
9.161556,2.2819565258076406,0.04409382904987202
9.165588,2.251783326757043,0.04400680569963414
9.169619999999998,2.2188077521814753,0.04393190221937398
9.173704,2.1793302096809555,0.04388707354820912
9.177788,2.135931624980583,0.04390257251799862
9.181816,2.092311590480341,0.04396031489274544
9.185856,2.045999905355064,0.044015539708589464
9.189884,1.993862019379976,0.04414231429499807
9.193967999999998,1.9453130009049355,0.04427509221585807
9.198048,1.8903727394048777,0.044433234289210186
9.202127999999998,1.834313811229938,0.04464245857072876
9.206212,1.7770254914801815,0.04494602010843815
