Time,Force,Position
10.4727,0.30241715765939714,0.0
10.476736,0.29916046485915443,0.0
10.480764,0.2901882961090362,0.0
10.484804,0.2860343864337817,0.0
10.4889,0.2788566514336871,0.0
10.492932,0.26563126578391233,0.0
10.496972,0.2534138219090843,0.0
10.501003999999998,0.23828327760935097,0.0
10.504995999999998,0.22527934175944597,0.0
10.508996,0.21608572320945796,0.0
10.513036,0.20767859663454694,0.0
10.517064,0.2029710624596181,0.0
10.521096,0.19725558650974256,0.0
10.525123999999998,0.19232660253494394,0.0
10.52912,0.18437379323530526,0.0
10.533103999999998,0.1791126345607021,0.0
10.537136,0.17306498391102187,0.0
10.541176,0.16970898388637717,0.0
10.545216,0.1711712429365962,0.0
10.549248,0.17834897793669077,0.0
10.553232,0.18765332138661361,0.0
10.557268,0.1971791146364062,0.0
10.561304,0.20961800831110397,0.0
10.565328,0.21712791801100317,0.0
10.56936,0.22575649438578402,0.0
10.573391999999998,0.2375196209853397,0.0
10.57742,0.2473775889349369,0.0
10.581447999999998,0.2629510328344097,0.0
10.585439999999998,0.2766193180839239,0.0
10.589479999999998,0.28468285228349743,0.0
10.593516,0.2919598945079941,0.0
10.597552,0.2956480692324434,0.0
10.601592,0.30404377813182154,0.0
10.605572,0.30604824400618214,0.0
10.60962,0.31029004323030573,0.0
10.613656,0.3100457580793703,0.0
10.617691999999998,0.314287557303494,0.0
10.62172,0.3194265734026295,0.0
10.625752,0.31885011355188947,0.0
10.629744,0.31816292880121455,0.0
10.633724,0.31657852717552776,0.0
10.637704,0.3091679247000305,0.0
10.641735999999998,0.29895494669956296,0.0
10.645775999999998,0.29075785224898887,0.0
10.649808,0.2768452818485392,0.0
10.653844,0.26181404477320797,0.0
10.657884,0.24868796634783524,0.0
10.661915999999998,0.2283662776014497,0.0
10.665948,0.20793386395512933,0.0
10.66998,0.1912010427087911,0.0
10.674015999999998,0.17536543833746468,0.0
10.67804,0.16089924343734063,0.0
10.682068,0.14304775551612084,0.0
10.686044,0.13250260281584872,0.0
10.690072,0.12083878344069499,0.0
10.6941,0.11377177334053527,0.0
10.69814,0.10110001219043488,0.0
10.702168,0.0857187250943808,0.0
10.706152,0.07416563061916198,0.0
10.710192,0.059699435719037915,0.0
10.714128,0.04702767456893751,0.0
10.718163999999998,0.04018211426864754,0.0
10.722088,0.03401232104349965,0.0
10.726071999999998,0.02795325271828663,0.0
10.730044,0.02940409409297281,0.0
10.734075999999998,0.033878760792499074,0.0
10.738056,0.03532960216718525,0.0
10.742052,0.04196017031299085,0.0
10.746036,0.05161456378363652,0.0
10.750076,0.06630866612901565,0.0
10.754116,0.07909760982443628,0.0
10.758112,0.08648537694886775,0.0
10.762152,0.09535327844443649,0.0
10.766132,0.10050371221910484,0.0
10.7701,0.10543269619390344,0.0
10.774076,0.10576487089370805,0.0
10.778104,0.11282046331833492,0.0
10.782139999999998,0.12190981461377338,0.0
10.78612,0.12896540703840026,0.0
10.790171999999998,0.13691821633803894,0.0
10.7942,0.14431740113800326,0.0
10.798236,0.14859345338872548,0.0
10.802319999999998,0.15771060006537713,0.0
10.806359999999998,0.17582275084321275,0.0
10.810392,0.19575217072213766,0.0
10.814376,0.218961118752371,0.0
10.818412,0.25250518735853955,0.0
10.82244,0.2896609588158211,0.008037203695218998
10.826476,0.32538872424948223,0.016688693040288152
10.830504,0.35666465833468275,0.02610802160467094
10.834536,0.39637055434586005,0.03519657222222487
10.838568,0.45033261313282447,0.04365653806523103
10.842596,0.5080170996708367,0.052155289295957766
10.846632,0.572447839284737,0.06053539100612744
10.850724,0.6456407155244186,0.06864739713559949
10.854748,0.727939320765219,0.07668825046847524
10.858788,0.811047253332162,0.08474925227508574
10.86282,0.8976561638502832,0.09285648618828304
10.866856,0.9898926607694106,0.10100569422641015
10.870895999999998,1.0870809770144025,0.10914185748354199
10.874928,1.1919013455347611,0.11701013396064465
10.87896,1.3063582322048475,0.12455959581705939
10.882996,1.4201165164487262,0.13193382721842592
10.887032,1.5212909290913732,0.13943506932255273
10.89106,1.619972305557789,0.1467977550727605
10.895084,1.7154848787728312,0.15402657741813577
10.899116,1.8039076065366482,0.16115957296409672
10.903144,1.887145647499198,0.16021471445420013
10.907172,1.9736061282353923,0.15843569327598883
10.9112,2.061605339895142,0.15577114019239816
10.91524,2.1440876900538197,0.15338929397285128
10.919268,2.217021411611639,0.15165482587574558
10.923312,2.2853354885433994,0.14988157239091926
10.927348,2.350824354599123,0.14810474206518925
10.93138,2.4086697507039476,0.14659600732015685
10.93542,2.461109010207635,0.14511277434383119
10.93946,2.509604392160405,0.14360041121644818
10.943492,2.5544880712620617,0.14199713936374933
10.947524,2.5957600475126053,0.14030785284999195
10.95156,2.6323016542371542,0.1386139169984191
10.955592,2.6578437909861594,0.1373032608778665
10.959616,2.6740701666097086,0.13632050343163127
10.963644,2.6854782831583943,0.13556847807669145
10.967692,2.7024911507570204,0.1345793094388774
10.97172,2.714796484180717,0.13379263305277925
10.975752,2.7251966589544563,0.13310275230117452
10.979779999999998,2.7334702252783663,0.13253649692891703
10.98376,2.741633066702342,0.1319922577976422
10.987848,2.7441911570763766,0.13167716740307475
10.991888,2.743614697225637,0.1315269201766526
10.995919999999998,2.7431489622748315,0.13135887352280787
10.999956,2.743801893998908,0.13112576217005847
11.003996,2.745573492397866,0.13082872361733341
11.008028,2.741629614846948,0.13075456625380488
11.012068,2.738804403970912,0.13061537968239492
11.016104,2.7369871348698225,0.13043137922491882
11.020084,2.735502040468538,0.1301940670353257
11.02406,2.7341276709671876,0.1299401392298935
11.028092,2.731745359690892,0.12973025196059002
11.032072,2.731268207064554,0.12945337387015302
11.03598,2.7357200384130147,0.1289788015213656
11.03996,2.742974245286445,0.1284151282024606
11.043952,2.7558332032098165,0.12767513535757546
11.047984,2.766676277583295,0.12702889647719764
11.05202,2.780886769656951,0.12631399035983157
11.056055999999998,2.792970653280778,0.12569514592483927
11.060088,2.807070420454499,0.12499424033707066
11.06412,2.8202729707532077,0.12431675036201445
11.068144,2.831681087301893,0.1236781605676117
11.072176,2.846002304275483,0.12293254515985824
11.076211999999998,2.856402479049222,0.12233474762145802
11.08024,2.8651189449728722,0.12177156509126033
11.084267999999998,2.8728274691215754,0.12125534708967574
11.088304,2.88445703547013,0.12058288779235282
11.092392,2.8940707182687926,0.11999719677861773
11.096484,2.8998740837675374,0.11954626850553088
11.100572,2.9027643488413775,0.11920305914602483
11.104656,2.9048681219401398,0.11886906950555667
11.10874,2.9082012866137186,0.11846115572649456
11.112828,2.9098507424372086,0.11808671644978806
11.116903999999998,2.9078006058607166,0.11782102799163682
11.120992,2.900145718234284,0.1177256910913069
11.125076,2.886996804457845,0.11778009434001087
11.129164,2.8728399489064604,0.11787468402979678
11.133256,2.8582287760798026,0.11791965858106979
11.137296,2.8476493703529315,0.11780589927939038
11.141379999999998,2.8342675891010907,0.1177740941124561
11.145412,2.823798908274155,0.11763919871738746
11.149448,2.818148486522083,0.11734356691510023
11.153492,2.8111465306197267,0.11702201032010585
11.157524,2.8082870667170923,0.11653067411633677
11.161572,2.8045303859394464,0.11605643420352302
11.165608,2.8020030967366165,0.11551195905492967
11.16964,2.7986893155587094,0.11497270849212976
11.173672,2.7957077090806073,0.11438005384189184
11.177696,2.794852711052333,0.11369284883849488
11.181736,2.792203279274035,0.1130349803609345
11.185768,2.787537963945844,0.11245059074027841
11.189796,2.7809674899676944,0.11192473260211919
11.193824,2.7714839155646396,0.11149201586346144
11.197864,2.7659213833614364,0.1109227517280051
11.201892,2.7642798933580854,0.11021078957453324
11.205932,2.764765011804563,0.10940048405139001
11.209964,2.764574363175898,0.10856826785353837
11.214,2.7641622647473634,0.10777291019390141
11.218039999999998,2.75926408194377,0.10707990900568462
11.222084,2.7554845658150575,0.10632438200274225
11.226112,2.7449816319615232,0.10578156917597452
11.230148,2.7314548727831496,0.10535274446032965
11.234184,2.715580055355076,0.10505054928112077
11.238208,2.6985865712521226,0.10479825766277096
11.242235999999998,2.683387520899192,0.10450273149581427
11.246268,2.6672912536712494,0.10421921346579466
11.250304,2.6501870446683604,0.10396798308826057
11.254331999999998,2.6366717031655185,0.10363629669262497
11.25836,2.6230456367627424,0.10331837542936251
11.262396,2.619056088509693,0.10271860449489419
11.266431999999998,2.6150665402566444,0.10211186489977643
11.270464,2.6109662671036604,0.10151909383749225
11.274496,2.613367961875629,0.10077061896400454
11.278531999999998,2.6118486144477466,0.100145258436193
11.282564,2.6121237007698865,0.09949164334507764
11.286611999999998,2.612963829267234,0.09887642188985252
11.290644,2.6185114919395107,0.09815264386564837
11.294692,2.624280604411657,0.09739774964429827
11.298724,2.6333064096840455,0.09662755433860429
11.30276,2.6459210824564816,0.09580802562332222
11.306732,2.6663778396286215,0.09476287743366374
11.310652,2.68571593012588,0.09375378125048761
11.314644,2.70617268729802,0.09268411853248086
11.318587999999998,2.72640799467029,0.09165238450324414
11.322568,2.746532577142626,0.0906429488945361
11.3266,2.7650955933403396,0.0897510809695671
11.330644,2.784334376613196,0.08887728727432175
11.334675999999998,2.79684974216123,0.08817859674311214
11.338708,2.811159541459288,0.08746072500089969
11.342744,2.8177379812575762,0.08695742919446915
11.34678,2.8280160134558474,0.08638483598731557
11.350763999999998,2.838294045654119,0.08580917764584556
11.354792,2.8418486601275674,0.0853981013257958
11.358836,2.8473084332509746,0.08494166729156813
11.362876,2.8496336561496074,0.08459384983800931
11.366903999999998,2.85027517019815,0.08425630659085771
11.370988,2.8469956420468425,0.0840208898616542
11.375068,2.8415895054457057,0.08385815066960428
11.379148,2.83472110979435,0.08367010641564422
11.383236,2.8201213546432253,0.08366301279385223
11.38732,2.8004818906173674,0.08379369285957176
11.391407999999998,2.7838662519163493,0.08383851678837659
11.395495999999998,2.7671398883153966,0.08389858973257315
11.399591999999998,2.7506349745143126,0.08392356856375383
11.403683999999998,2.7361459442631233,0.08388717229642094
11.407728,2.722099813611673,0.08378600819832802
11.411728,2.7083858576600277,0.08363326356690363
11.415776,2.6987036688081694,0.08336621804319036
11.41988,2.687227046206287,0.08312077306744019
11.423928,2.675639698704469,0.08289004486067075
11.427976,2.6595662668275923,0.08271341105609335
11.432028,2.6427063429756386,0.08252886213600703
11.436063999999998,2.628194477373383,0.08223358998501033
11.4401,2.6116667282212345,0.08199325763881032
11.444132,2.596589820443772,0.08165279658412626
11.448163999999998,2.5814021877663746,0.08132597449950119
11.452188,2.5671117719639884,0.08098562501906299
11.456216,2.55685312326139,0.0805291532625149
11.460252,2.547270241633933,0.08009304707394253
11.464223999999998,2.544632227531168,0.07947173180660268
11.468267999999998,2.544907313853308,0.07878079843632955
11.47224,2.5445066331003066,0.07807033830679881
11.476336,2.546011110997263,0.07732277891406841
11.480439999999998,2.5486342555691013,0.0765363707391376
11.484488,2.5473363579410875,0.07584137311611665
11.488488,2.545927735413139,0.07515933292584497
11.492544,2.5434004462103097,0.07451932490977749
11.496548,2.5407624321075444,0.07389682447235503
11.500528,2.5344248256047974,0.07332014914121787
11.504524,2.5310003195269566,0.07267956764535492
11.508572,2.5347535484492085,0.07197292763189268
11.512564,2.542206369771444,0.07121763969685876
11.516616,2.550113508368951,0.07052226582060565
11.520547999999998,2.560933747391364,0.06976648698033638
11.524544,2.5695166530640132,0.06909393021382408
11.528579999999998,2.5789967756116745,0.0684122651154917
11.53256,2.5886983479592054,0.06770015509301075
11.536608,2.595154645182027,0.06710154932045295
11.54066,2.6025081592798593,0.06649911222133967
11.544708,2.6095294986778876,0.0659590197559438
11.548759999999998,2.6136377376510107,0.06547195280453612
11.552808,2.6183110187993406,0.0650318007686576
11.556904,2.623992241722618,0.06457650852772034
11.561,2.6283333481711435,0.0641951591819994
11.565088,2.6326744546196696,0.06380823034352345
11.56918,2.639817936593165,0.06339049364905623
11.573276,2.6487558523166848,0.06296262928622709
11.577376,2.661393360440187,0.06250767827915253
11.581419999999998,2.6795248947136945,0.06200438935964414
11.585468,2.6956405454373087,0.06154608934965732
11.58952,2.7072701117858635,0.06112493721056709
11.593568,2.716773069684591,0.06076483736613746
11.597548,2.7272839693582647,0.06038693256190744
11.601596,2.7358897103819793,0.060035055423637906
11.605643999999998,2.7490922606806887,0.0596489963467994
11.609748,2.764089244729421,0.05925949929229867
11.6138,2.779651270953361,0.05891595213342286
11.617828,2.797339905627129,0.058520289494626426
11.621868,2.81121822300098,0.05816754144321757
11.62596,2.8225156146497303,0.05781460216350101
11.630052,2.838631265373345,0.05740249362762075
11.6341,2.855865582771841,0.056965844307842274
11.638148,2.86906813307055,0.0566033981040152
11.642191999999998,2.8822706833692586,0.05624095190018812
11.646244,2.8992835509678847,0.05583826218374092
11.650292,2.915399201691499,0.05544679694006986
11.65434,2.92949896886522,0.05509023583950363
11.658328,2.937772535189131,0.054811669933045454
11.66238,2.943808768163278,0.054597659003434315
11.666428,2.9519716095872535,0.054336850115763835
11.670476,2.958007842561401,0.05412293807681679
11.674471999999998,2.9631468586605365,0.05391073139948318
11.678504,2.967277932984725,0.05371632968194997
11.68254,2.973092716159002,0.05353200135016671
11.68654,2.976215848708244,0.05335672137715687
11.69058,2.9766473306324506,0.05318861360320149
11.694624,2.973379220156675,0.05304214457741654
11.698652,2.968095226131006,0.05292803580922687
11.702624,2.967850940980071,0.05273208556944473
11.706664,2.9662665393543843,0.052593885004758555
11.7107,2.9606503706289113,0.05252095764192724
11.714648,2.950891709903716,0.05252639426016848
11.718647999999998,2.944943366478438,0.05249608007316646
11.722524,2.9372005893031363,0.05246927448276251
11.726575999999998,2.9303550290028464,0.052439617255410326
11.730515999999998,2.9185804847277574,0.05247489921525013
11.734512,2.907813882227616,0.05249495305947437
11.738556,2.898952438377432,0.05249790953327708
11.742552,2.889636677251977,0.05244485495546259
11.74662,2.878870074751835,0.05246515842847656
11.750676,2.8710165726765973,0.05245159111667069
11.754732,2.865965446126332,0.05241832895782109
11.758736,2.8611357693759354,0.0523558826557388
11.762716,2.8564168175254734,0.05227930345726314
11.766711999999998,2.849792707025053,0.05221934236079126
11.770756,2.8410419880748043,0.052205759518567034
11.774804,2.8361015864244727,0.052156687383224126
11.778776,2.833177068324035,0.05207502142230589
11.782699999999998,2.827793767073964,0.05208320603588163
11.786696,2.826331508023745,0.052042558693312896
11.790692,2.827782349398431,0.05196894276958795
11.794692,2.835059391622928,0.05183000264590883
11.798744,2.83751817477256,0.05174067178686915
11.802792,2.8456924338720686,0.05160170905012119
11.80684,2.849945650771726,0.05151167076323414
11.8109,2.861598052471346,0.05138203820212125
11.814899999999998,2.871566745320878,0.05124044778677295
11.818908,2.88153543817041,0.051098857371424646
11.822955999999998,2.8940850567450433,0.05097006637779627
11.826984,2.9071882998193503,0.05077078249797851
11.830968,2.916370500693805,0.05061722268281228
11.83502,2.9246554846932487,0.0504672679796791
11.839047999999998,2.9296951935679822,0.050390239942648574
11.84308,2.9357428442176623,0.050299692014152145
11.84716,2.9454900872673244,0.05019159917228239
11.851244,2.9611742560667325,0.05000785116078786
11.855324,2.975850483091193,0.04984050901884251
11.859403999999998,2.986605667915802,0.04971862749970364
11.863484,2.999708910990109,0.049526276523005876
11.867568,3.009001836764499,0.04936516257145488
11.871655999999998,3.0166110536888002,0.04919390601637892
11.875752,3.0165996360132676,0.04908324057966333
11.879839999999998,3.021517202312533,0.04891334224262546
11.883924,3.0207192926619237,0.048789771038195665
11.888012,3.0192456159361725,0.048637634172867567
11.892096,3.0126100877602187,0.048460956840705276
11.896188,3.010460643959325,0.048282852067575883
11.90026,3.007413983283419,0.04810451397229985
11.904348,3.002462163957554,0.047941413393355815
11.908435999999998,2.996170228156939,0.047832729219680056
11.912527999999998,2.99671243498108,0.047654606064529335
11.916616,2.9961359751303402,0.04750449970812251
11.920716,3.0025043828042914,0.047271965794226836
11.924808,3.004951748278392,0.047081159388509826
11.928895999999998,3.0047074631274566,0.04689134757261395
11.932992,3.001550077551616,0.04672980883605658
11.937024,2.999400633750722,0.04655549667110902
11.941116,3.0008400574498753,0.046380624162673065
11.945148,2.99735049717423,0.04625846428662565
11.949179999999998,2.9958768204484785,0.046108850084507526
11.953271999999998,2.9913793183978865,0.04599816569186026
11.957316,2.9887869749972538,0.045872235712696746
11.961348,2.9814870974216907,0.04577267784326214
11.965436,2.9759816535961527,0.04567291612232964
11.969472,2.971262701745691,0.04558640927382232
11.973508,2.966211575195425,0.045541616076564206
11.977604,2.9547692056201407,0.04550837827319871
11.981632,2.9444455027197387,0.04544550540706969
11.985712,2.930532932319289,0.045379903163301524
11.98974,2.916731086818774,0.04529982404010801
11.993783999999998,2.897103040468448,0.045274305737670495
11.997823999999998,2.8739968515180108,0.045232592461211966
12.001852,2.8432700279677388,0.04524342261310503
12.00588,2.813661871092348,0.045224610589554806
12.009916,2.781140613792053,0.04523404792234624
12.013952,2.7446983142919055,0.04528996499720015
12.017983999999998,2.7026512637418176,0.04537520214552772
12.02202,2.657236795491552,0.04542659903660288
12.026052,2.612719544116298,0.04548472797263019
12.030088,2.5643919754411275,0.045575284029464584
12.034132,2.516175131665892,0.04565353540901085
12.038163999999998,2.467282520815514,0.04569732839706844
12.042164,2.4220895023651186,0.04572206417934174
12.046136,2.373307616414675,0.04574459485535112
12.05018,2.322509846914339,0.04581065056161575
12.054168,2.2718228023139373,0.04586286067592098
12.058148,2.2237166834386364,0.04593987251800984
12.062176,2.171578797463549,0.04609542369594105
12.066216,2.1201166785636034,0.04630577899937962
12.070244,2.068765284563592,0.04649255321756965
12.074227999999998,2.0156194568135577,0.04669557688120497
12.078208,1.9631493961386655,0.0469606904474362
12.082192,1.9125844941137315,0.04721619076469221
12.086147999999998,1.8638140258388212,0.04745869438131092
12.090148,1.8197510917388398,0.04765746994338794
12.094152,1.7815143584886683,0.04776667525279684
12.098152,1.7487716513885032,0.047858641833458525
12.102124,1.7177126531384272,0.047971134149287636
12.106124,1.690574697088203,0.048011498248965355
12.110152,1.668144275212907,0.048007183252165804
12.114135999999998,1.6473975621877004,0.04802910755813102
12.118172,1.6283345580125823,0.04807270926098734
12.122215999999998,1.6046747445624703,0.048137196615215226
12.1262,1.5834851319375245,0.04826013893383052
12.130184,1.5634141859874595,0.0483416579195257
12.134163999999998,1.5463670653622352,0.0483375488077646
12.138144,1.528422727861999,0.04833894200688588
12.142124,1.515296649436626,0.0482629196855072
12.146152,1.5042971794610815,0.04810561415844591
12.150188,1.4912818259356435,0.0480006506055752
12.154215999999998,1.481179572835111,0.04783446150273623
12.158255999999998,1.4724174362093294,0.047544974103761926
12.162356,1.4645525164585598,0.047249613800003386
12.166388,1.4478375705331397,0.047184320296243844
12.170424,1.426304365532856,0.04723149270388281
12.174456,1.4008501183327204,0.0473813837247271
12.1785,1.3755065960325197,0.047488640183773266
