Time,Force,Position
11.906211999999996,0.5564916238186294,0.0
11.910239999999996,0.5409067622436237,0.0
11.914279999999998,0.5288000432687305,0.0
11.918323999999998,0.5174798162689144,0.0
11.922323999999996,0.5052623723940863,0.0
11.926364,0.4973095630944476,0.0
11.9304,0.4873408702449155,0.0
11.934427999999995,0.476929277795644,0.0
11.93846,0.47234388619618284,0.0
11.942495999999998,0.47134736209676903,0.0
11.946531999999998,0.4675484624723849,0.0
11.950559999999996,0.4609471873230303,0.0
11.954555999999997,0.4569268378987764,0.0
11.958591999999996,0.45234144629931533,0.0
11.962615999999995,0.4485425466749311,0.0
11.966656,0.44194127152557655,0.0
11.970687999999996,0.4335455626261984,0.0
11.974723999999997,0.4259363457018972,0.0
11.978763999999998,0.42034301232748933,0.0
11.982796,0.4169870123028447,0.0
11.986832,0.42337825532786233,0.0
11.990871999999996,0.4250619641779511,0.0
11.994907999999995,0.4230460806280576,0.0
11.998936,0.4202437051030874,0.0
12.002967999999996,0.4193464882280756,0.0
12.007003999999997,0.41317669500292764,0.0
12.011032,0.4080148435527265,0.0
12.015059999999998,0.4075605262774541,0.0
12.019087999999996,0.4062089921271699,0.0
12.023128,0.4039602411018739,0.0
12.027155999999998,0.401035723001436,0.0
12.031196,0.399462739051282,0.0
12.035232,0.3999284740020872,0.0
12.039319999999996,0.4105192974044907,0.0
12.043408,0.4280892413581848,0.0
12.047495999999995,0.45510850668833513,0.005659277241264772
12.05158,0.491355643595072,0.011699100504222348
12.055664,0.5355898428280461,0.017866640578717147
12.059751999999996,0.5846765541624827,0.024309884779458415
12.06384,0.6377185607233695,0.03109282872306434
12.067932,0.6935971958358252,0.03793357836980714
12.072012,0.756897851099311,0.0448752431920784
12.076104,0.827509801613892,0.051905763833635626
12.080191999999997,0.9042036558047516,0.058997664294399295
12.084272,0.9830583714720382,0.06635036516283407
12.088359999999994,1.0694572498658226,0.07385804083623472
12.092456,1.1621594817357552,0.08136891686916875
12.096548,1.2558924907317004,0.08898074832324394
12.100643999999996,1.3549209114288472,0.09662931258273494
12.104735999999995,1.4593554687271306,0.10431144856324452
12.108827999999995,1.5735715221016748,0.11191652928608967
12.112924,1.6954196277515867,0.11938883710480189
12.117016,1.8200472735754025,0.12663718472581356
12.121111999999997,1.933198296797336,0.13391756349125833
12.125203999999997,2.0353270146926596,0.14126849278394077
12.1293,2.1264334272613725,0.14300102858048006
12.133387999999997,2.2079683758781616,0.14435676507835613
12.137476,2.280164728018429,0.145593836003369
12.141571999999996,2.34313320858211,0.14665384493492967
12.145668,2.404273002369169,0.14722584353914203
12.149699999999996,2.453382549054672,0.14787377646712593
12.153735999999997,2.501904218213901,0.14818950670880945
12.157772,2.546924909421952,0.14833228775325571
12.161747999999996,2.5859744218536598,0.14837557774445814
12.165731999999998,2.622187305733798,0.14810113309818837
12.169787999999995,2.657579444612261,0.14745891227420882
12.173828,2.6878976215893915,0.14673073093908534
12.177872,2.717295746340444,0.1458013090872305
12.181923999999997,2.7442008349152665,0.14472155744127135
12.185932,2.765699786888952,0.14360823407429368
12.189975999999994,2.7764093010114297,0.1426505070352869
12.194027999999996,2.7810483291331614,0.14178168968419094
12.198079999999996,2.7781774475549943,0.14120753062439745
12.202123999999998,2.779460475652081,0.14053955694566508
12.206176,2.7843323712492154,0.13974880999575467
12.21018,2.793690351221408,0.13881452767606195
12.214228,2.8084316324436727,0.13771968593209044
12.21828,2.823062188766002,0.1366299266017611
12.222311999999995,2.8434082210382075,0.135312092216314
12.226355999999996,2.8599439360104952,0.13415541631788636
12.230384,2.8810764602577774,0.13281540443235423
12.234468,2.89492052460503,0.13174241501122705
12.238499999999997,2.9071916050021294,0.13070323658687527
12.242531999999995,2.9222650609241985,0.12958552916398886
12.246511999999996,2.9391329505962904,0.12843353937283716
12.250608,2.9511825811935193,0.12748324309445894
12.254635999999998,2.9592004446909614,0.12669622405812214
12.258668,2.964637382463303,0.12597667193775236
12.262704,2.963350902510822,0.12549314502636919
12.266735999999996,2.963183089233223,0.12495328485562605
12.270772,2.967833535030488,0.12424116535910038
12.274755999999996,2.9697923302027176,0.12359988975124651
12.278791999999996,2.975893617374668,0.12277910726452526
12.282827999999997,2.9819949045466183,0.12196691483409292
12.286864,2.9878747419186995,0.121190811957102
12.290895999999996,2.989833537090929,0.12055864708468006
12.294928,2.9867526233884245,0.12012558725021259
12.298904,2.988157794060979,0.11958291673742326
12.302943999999997,2.9881121233588472,0.11914938200700598
12.306979999999996,2.9886314948319233,0.11873949356242926
12.311008,2.987024257855171,0.11842075842691911
12.315036,2.9879979466035187,0.11804986444903873
12.319119999999998,2.985947810027027,0.1177931571821841
12.323159999999994,2.977174255725713,0.11775933036332535
12.327247999999996,2.9684007014243994,0.11772045069958793
12.331339999999996,2.9566033217982453,0.11780037161598855
12.335428,2.946932550621919,0.11778800902404295
12.339515999999996,2.933562187045611,0.1178860258403782
12.343604,2.926128749219048,0.11776017571239207
12.347696,2.9140985021174908,0.11776838145407864
12.351771999999997,2.902965471890946,0.11774494519320541
12.35586,2.8919431665643356,0.11770546240133047
12.359947999999996,2.8777863110129505,0.11779842044149891
12.363988,2.8646373972365122,0.11784431451313332
12.368083999999996,2.8515992083600086,0.1178709497127188
12.372175999999996,2.836877310633416,0.11793050487470975
12.376272,2.82316335468177,0.11795319168586482
12.380311999999996,2.8039553725801185,0.11812536207540432
12.384339999999996,2.783174406528313,0.11830494700177716
12.388379999999998,2.7619391232012354,0.11844084810812198
12.392475999999997,2.7426089985241164,0.1185162112889198
12.396572,2.7205872232219623,0.11866427935531686
12.400604,2.7043916487696174,0.11859774597853347
12.40464,2.692338566316995,0.118350018637106
12.408671999999996,2.6755779496894436,0.11825096995100155
12.412707999999997,2.6618411583867316,0.11803014670726482
12.416736,2.6510174675089258,0.11769807155756337
12.420732,2.6456878027811257,0.11720633376631762
12.424699999999994,2.635872053678266,0.11682714249651943
12.428728,2.6327797223002296,0.11621297752674176
12.432755999999998,2.625090581647198,0.1157297184100218
12.436704,2.6219982502691606,0.1151195834974344
12.440703999999997,2.619127368690994,0.11446993860211123
12.444736,2.612335444912974,0.11396091441476588
12.448775999999995,2.606440738009966,0.11343087839855916
12.452759999999998,2.6060400572569646,0.11275194987670646
12.456803999999998,2.605639376503963,0.1120690282530233
12.460851999999996,2.608041071275931,0.11129658926497821
12.46488,2.610332041147965,0.1105382677438551
12.468908,2.61822776206994,0.10962669016857052
12.472891999999996,2.6272421496667957,0.10866577733611887
12.476931999999998,2.639058912788622,0.1076147292204652
12.480928,2.6470653586105315,0.1066970911310518
12.484972,2.655747571507583,0.10580430973359214
12.488968,2.668129376804616,0.10480982398738961
12.493023999999998,2.6814083989766613,0.10379623511120398
12.496972,2.689758437173908,0.10295284853719192
12.501075999999998,2.6953060998461846,0.1021906655045541
12.505176,2.704221180218638,0.10138446895323396
12.509228,2.7108989272413293,0.10070309661886256
12.513231999999997,2.7172444995642158,0.10006449921910983
12.517179999999996,2.721684913237143,0.0994922549172362
12.521172,2.729935644209988,0.09882450649365421
12.525175999999997,2.73919431695778,0.0981145155360471
12.529151999999996,2.741729571980749,0.09758619282982844
12.533179999999994,2.7443755519036532,0.09705014354102161
12.53718,2.744108431401652,0.0965925749537186
12.541232,2.7457464695496094,0.0960871838456578
12.545276,2.7482817245725784,0.09556347536184392
12.549335999999997,2.743872112070856,0.09526432973932551
12.553384,2.73722516621937,0.09506723754918808
12.557375999999998,2.734277812767866,0.09478909032712762
12.56136,2.7280851841916527,0.0946431395104205
12.565396,2.7207738889405575,0.09454728575097986
12.569448,2.7106602181644917,0.09451597707395029
12.573423999999996,2.7014437642634372,0.09446585707401255
12.577455999999998,2.697942786312259,0.09426926826814627
12.581539999999997,2.69634696701104,0.09402443189502634
12.58562,2.6938539308348086,0.09379548889223736
12.589655999999998,2.6904636777835655,0.09358198828925125
12.593635999999996,2.689089308282216,0.09330321049325221
12.597615999999997,2.6845803885560904,0.09313747507125651
12.601651999999994,2.6721186595303275,0.09321440031859471
12.605683999999997,2.661562089154523,0.09324119962827007
12.60978,2.6596340951534985,0.09304381280687284
12.613875999999998,2.6558009425025153,0.09289424970556279
12.617971999999996,2.659699149351302,0.09254091427933384
12.622112,2.657771155350278,0.09234310517660539
12.626264,2.6551673942741116,0.0921249357993653
12.630395999999998,2.6555874585227857,0.09180826357159455
12.634527999999996,2.659363522796103,0.09134639130506945
12.638607999999998,2.657645560919416,0.09099143901347358
12.642744,2.6612994826172662,0.09042487672050616
12.646828,2.662372478590017,0.08987842150368862
12.650908,2.663334749662832,0.08934209036568314
12.655048,2.6616053701106117,0.08884876600426724
12.65918,2.654160514608516,0.08849442116567785
12.66332,2.6429053418065034,0.08823064447285255
12.667459999999998,2.6347847192292657,0.0878532840794517
12.671596,2.6287907051018564,0.08739790746377823
12.675736,2.6183106065993877,0.08700331383369782
12.679876,2.60939207437154,0.08648566221233277
12.683955999999997,2.6067426425932427,0.0857354793246395
12.68804,2.600615068214832,0.08501802930102721
12.692119999999996,2.5948196685362257,0.08426044562371855
12.69616,2.5852139515577037,0.0835795110107455
12.700195999999998,2.5730273088540807,0.082922789372199
12.704223999999996,2.566888316800138,0.0820874148846986
12.708251999999996,2.5597413829712488,0.08127279537071408
12.712283999999997,2.554499607792317,0.08042321575599747
12.716311999999997,2.5471312241635573,0.07965089394146366
12.720351999999998,2.5406600574098093,0.07886041970539563
12.724387999999998,2.53307022398118,0.07811535816260594
12.72842,2.5294014327524037,0.07727515458294887
12.732456,2.5279699748733897,0.07634256990361188
12.736399999999996,2.527435733869387,0.07539197169960545
12.740435999999995,2.5299253181902244,0.07435153184687324
12.744471999999996,2.53476296076076,0.07319210671417009
12.7485,2.530074810081503,0.07220362023550228
12.752527999999998,2.51877396657736,0.07132336247469583
12.756567999999994,2.5161016994479963,0.07026919568535789
12.760548,2.5142159242937097,0.06922241299648464
12.764575999999998,2.5111007575646065,0.06824222672253148
12.768611999999996,2.51045579166067,0.06726403150271312
12.772639999999996,2.5048818417819336,0.06639886152464528
12.776683999999996,2.505134092753008,0.06541462542446048
12.780715999999998,2.5003466348493495,0.06454505184230773
12.784768,2.4905194680709575,0.06379380292669089
12.788756,2.4864077772424404,0.06295658179746746
12.792752,2.4750076265138947,0.06217227185883607
12.796796,2.46170231713539,0.061410250059872454
12.800843999999998,2.4482862828569503,0.06065905873086297
12.804891999999995,2.4328543650286174,0.05994656657816468
12.808892,2.4143986218754443,0.05929613619792497
12.812931999999996,2.396729370697348,0.058653565275002734
12.816983999999998,2.3799573363942637,0.0580006686082053
12.821027999999998,2.362066635416298,0.05738126096465908
12.824943999999997,2.3465354103635625,0.05679873575703996
12.828939999999996,2.3391898620858687,0.05615464021940652
12.832932,2.336330398183234,0.055479290649264684
12.836915999999997,2.3291069924810084,0.05495204979526851
12.840959999999995,2.3216621369789125,0.05445900300479445
12.844947999999995,2.314106556576882,0.05398262112751645
12.848931999999998,2.305543034399905,0.05352466202557519
12.852959999999996,2.297766004198004,0.053075649620266445
12.856988,2.2868544237713286,0.052704674798467
12.860976,2.281547594394594,0.05228054581477304
12.864951999999995,2.2761300401179247,0.05186523750342228
12.86898,2.2626489516416814,0.05161381653313795
12.873016,2.257021365240676,0.051374587776032904
12.877047999999997,2.2532989374896277,0.05110985765749905
12.881031999999998,2.250363001713657,0.0508604388338792
12.885067999999997,2.2510159334377335,0.05060314208586952
12.889103999999996,2.253463298911834,0.0503405009934533
12.893139999999995,2.2518788972861468,0.05015806807818773
12.897171999999998,2.25007304586059,0.05001296394523322
12.901159999999996,2.250061628185057,0.04986497297213895
12.905192,2.2481450518595656,0.049739083633816905
12.909219999999998,2.243426100009104,0.04963504635129244
12.913255999999995,2.236801989508684,0.04955031475182336
12.917288,2.22860489505811,0.04942955533920278
12.921371999999998,2.216486758407684,0.049368973733858415
12.925463999999998,2.202574188007234,0.04930780604684344
12.929539999999996,2.189669559381731,0.04922514057423715
12.933568,2.1794565813812636,0.04913849111779187
12.937655999999995,2.170140820255808,0.04905081016145184
12.941679999999998,2.1598171173554053,0.04898115777071604
12.945715999999996,2.1572247739547716,0.048814566903359044
12.949748,2.160680081203819,0.048532428380745576
12.953779999999997,2.1606572458527533,0.04823518349501667
12.957864,2.1576105851768475,0.04799110606976103
12.961895999999996,2.1546746494008766,0.04772809927406727
12.965927999999998,2.149833554974947,0.047485559216282225
12.970016,2.1439845187740705,0.04726024117860957
12.974052,2.1399299163232186,0.04703199639817562
12.978088,2.133970155222407,0.04682141432851168
12.982067999999998,2.1242000768216793,0.046648011937474025
12.986163999999995,2.111406173096111,0.04653265091861711
12.990192,2.101525369795448,0.0463765032304433
12.99422,2.0936604500446783,0.04617839932046293
12.998252,2.087479239143998,0.04599829721379924
13.002283999999996,2.085219070443169,0.04575577218741174
13.006312,2.083745393717417,0.04553056640736272
13.01034,2.083168933866677,0.04530674848054734
13.014376,2.0785607069161505,0.04516300538776877
13.018411999999998,2.074173929765493,0.0449779423100485
13.022444,2.066874052189931,0.04483137291808057
13.02648,2.050724148439718,0.0448220530376585
13.030511999999996,2.030542477589718,0.04488827267447561
13.03454,2.010139356939849,0.044996162479928103
13.038579999999996,1.991530670040003,0.045111129346913456
13.042615999999995,1.9690009409403053,0.04529333038055969
13.046647999999998,1.9446767780905843,0.04547664283089813
13.050688,1.9240522076408453,0.04563553999491347
