Time,Force,Position
10.933767999999992,0.32777307430981445,0.0
10.937743999999997,0.3260779477841928,0.0
10.941783999999998,0.33088478918352376,0.0
10.945811999999997,0.3343515141081033,0.0
10.949796,0.3377075141327481,0.0
10.953799999999994,0.347786931882215,0.0
10.957856,0.3605580002567174,0.0
10.961844,0.37893381968116047,0.0
10.965832,0.4002227395305088,0.0
10.969863999999994,0.42621919355478594,0.0
10.973892,0.4500890391292348,0.0
10.977915999999992,0.4703700172036364,0.0
10.981851999999996,0.49098316997784264,0.0
10.985844,0.5016276299025169,0.0
10.989839999999994,0.5130585818022679,0.0
10.993827999999992,0.5263946923519776,0.0
10.997867999999997,0.5436518451015391,0.0
11.0019,0.5637113733760709,0.0
11.005935999999998,0.583660176750668,0.0
11.009927999999997,0.5978935041753894,0.0
11.013967999999998,0.6103323978500873,0.0
11.018015999999996,0.6204118155995543,0.0
11.021995999999994,0.6295940164740093,0.0
11.026024,0.636084566723429,0.0
11.030063999999996,0.6423536671729789,0.0
11.034091999999994,0.6398834663478131,0.0
11.038072,0.636183873947831,0.0
11.042047999999994,0.6294604562230087,0.0
11.046087999999996,0.6206104300483583,0.0
11.050123999999997,0.6089580283487374,0.0
11.054156,0.5964084097741047,0.0
11.058191999999998,0.5864397169245726,0.0
11.062223999999992,0.5750201827003544,0.0
11.06626,0.5696482991258162,0.0
11.070248,0.5603553733514262,0.0
11.074275999999998,0.5493787387269474,0.0
11.078308,0.53671839525238,0.0
11.082296,0.5176668087527948,0.0
11.086287999999996,0.5007418307030379,0.0
11.090272,0.48605418600304406,0.0
11.094303999999994,0.4759633505780443,0.0
11.098247999999998,0.4655403404532399,0.0
11.1023,0.4505205210534415,0.0
11.106347999999995,0.4423348442784002,0.0
11.110399999999998,0.43526783417824044,0.0
11.114383999999994,0.4361536333777194,0.0
11.118432,0.43905531612709175,0.0
11.122519999999994,0.4411705069013872,0.0
11.126611999999994,0.4424992057006057,0.0
11.130699999999996,0.44293068762481236,0.0
11.134791999999996,0.44325144464908417,0.0
11.138824,0.43886466749842706,0.0
11.142903999999994,0.4375017156726101,0.0
11.146932,0.43513082207184633,0.0
11.150955999999994,0.4290603360711004,0.0
11.155047999999994,0.42366561714549666,0.0
11.159087999999995,0.4178279986201534,0.0
11.163183999999994,0.41916811509490465,0.0
11.167212,0.41927883999483956,0.0
11.171235999999992,0.41603356487012977,0.0
11.175272,0.4083022053703608,0.0
11.179295999999994,0.4006815707705267,0.0
11.18338,0.391942269495811,0.0
11.187472,0.3799576930963856,0.0
11.191516,0.36685445002207856,0.0
11.195547999999995,0.3489329478729078,0.0
11.199588,0.3319086625987489,0.0
11.203627999999997,0.31567086929966687,0.0
11.207719999999997,0.3003302928755967,0.0
11.211816,0.2859976582264733,0.0
11.215908,0.2764832826522135,0.0
11.219955999999996,0.2689847906278472,0.0
11.223988,0.2586839230785105,0.0
11.228027999999997,0.24759656355409687,0.0
11.232056,0.24255685467936342,0.0
11.236148,0.2386358124795115,0.0
11.240243999999995,0.2369521036294227,0.0
11.244271999999995,0.2317902521792215,0.0
11.248303999999996,0.22684985052889,0.0
11.252328,0.22504399910333353,0.0
11.256359999999994,0.22873217382778283,0.0
11.260447999999997,0.23611994095221428,0.0
11.264536,0.25213628445142655,0.0
11.26862,0.26265860180063294,0.0
11.272651999999994,0.2704892685248039,0.0
11.276675999999997,0.27989291919912873,0.0
11.280711999999994,0.2867156441483531,0.0
11.28474,0.2928626020224353,0.0
11.288827999999995,0.2981123430215055,0.0
11.292919999999995,0.3042593008955877,0.0
11.297011999999995,0.3036828410448477,0.0
11.301055999999996,0.3052329896439359,0.0
11.305096,0.30768035511803593,0.0
11.309135999999995,0.30990627079226624,0.0
11.313227999999995,0.31258650374176883,0.0
11.317315999999998,0.313250853141378,0.0
11.321407999999998,0.31257508606623596,0.0
11.325443999999996,0.31156714429128923,0.0
11.329483999999994,0.31156714429128934,0.0
11.33352,0.3096619856413308,0.0
11.337551999999995,0.30551949364160913,0.0
11.341631999999995,0.2986967686923849,0.0
11.345723999999995,0.2894266782690606,0.0
11.349812,0.29149965019661833,0.0
11.353792,0.30436205997538357,0.0
11.357819999999997,0.32420359030543927,0.0
11.361855999999996,0.35528887576197493,0.007594070706960497
11.365883999999994,0.39840440832006757,0.014882818832081137
11.369968,0.44996132047966975,0.02226050263969495
11.374052,0.5080544535908229,0.029708891838087108
11.378079999999995,0.5788421832031422,0.03697814971314903
11.382059999999996,0.6587470594921132,0.0441428050988086
11.386091999999998,0.7463068234075168,0.05134914367270962
11.390075999999992,0.8444345753742581,0.058488874488070754
11.394115999999997,0.9459525803922428,0.06575544437084464
11.398156,1.0563548646114767,0.07300791408563158
11.402248,1.173060502306859,0.08031542396939215
11.406284,1.298761144103425,0.08760792229386327
11.41032,1.4298793401766607,0.09498960354242103
11.414359999999997,1.5715655243012343,0.10229550056224128
11.418451999999997,1.7198872366017608,0.1095839383507677
11.422531999999997,1.873825117627761,0.11686260337593748
11.426516,2.0278737235536957,0.12419026762244698
11.430543999999998,2.1784327692039858,0.13147485215352328
11.434543999999995,2.3247043449280205,0.13864434528499175
11.438571999999994,2.4673528001254095,0.14568397951749273
11.4426,2.5969630664462944,0.14518630865712334
11.446679999999994,2.714875260365427,0.14495963620088803
11.450716,2.8284885666827724,0.14450186952362865
11.454763999999996,2.9347791600734894,0.14394495694316226
11.458799999999997,3.0303910405129333,0.14358991987509473
11.462891999999997,3.1139726738508204,0.14337121209540743
11.466987999999994,3.1901208693621452,0.1430819701744841
11.471083999999998,3.2587249021469717,0.14278524039062962
11.475179999999996,3.3252787983553063,0.14225359599492288
11.479276,3.3831698651622615,0.14174371468491512
11.483307999999994,3.43609769496782,0.14112950806532615
11.487339999999996,3.4821571291220224,0.14049537071829404
11.491428,3.5219017921245444,0.13974457963375495
11.49552,3.5493947582256387,0.13911906682593334
11.499559999999995,3.569011386900431,0.13850448132639118
11.503656,3.582213937199141,0.13789308767861586
11.5077,3.595958694321991,0.13712790440842104
11.511736,3.6077868751193507,0.1363443681849782
11.515828,3.6142317546666387,0.1357028963756079
11.519915999999997,3.6186607506640334,0.13514356758329418
11.524003999999998,3.6258921221863987,0.13450021311530364
11.528099999999997,3.6335778109840366,0.1338911828250189
11.532187999999998,3.637121007781953,0.13344438456802515
11.536275999999994,3.6395455379049872,0.13304629788289368
11.540371999999998,3.6457803853279387,0.13253820457060161
11.544452,3.6549283331757945,0.13193864303964825
11.548544,3.665870714773675,0.13130345000130583
11.552631999999996,3.6741214457465197,0.1307346275870785
11.556715999999994,3.680467018069406,0.13022893787822676
11.560803999999996,3.688607024142316,0.1296842120032827
11.564891999999992,3.697754971990172,0.12911414523197276
11.568979999999996,3.706005702963017,0.12856616756770886
11.573071999999996,3.716161592585821,0.12797285148171628
11.577163999999996,3.7309142914836175,0.12727130214420973
11.581255999999996,3.7465642072564265,0.12655131187823843
11.585344,3.7649057736542715,0.1257806751515399
11.589431999999997,3.7796584725520685,0.12509383701718219
11.593523999999997,3.7923952878999723,0.1244720687073777
11.59762,3.8117447960727633,0.1236967370720599
11.601715999999996,3.8272839869456377,0.12301499334380725
11.605812,3.8439418444933935,0.12229662325047433
11.609839999999998,3.85913744299093,0.12157216109408382
11.613871999999994,3.8766810997381653,0.12075211719551746
11.617956,3.89747003161011,0.11982313241028926
11.622083999999994,3.91108122848196,0.11902962095300451
11.626168,3.9216686000289696,0.11832552642373506
11.630299999999998,3.9295643209509437,0.11767632552346637
11.634443999999997,3.9364521000979713,0.11705266230966939
11.638523999999997,3.9424426623699875,0.11644913471416236
11.642607999999996,3.9496626162168202,0.11579820497009788
11.64658,3.9549774114136933,0.11519751929655711
11.650619999999996,3.9614108732854487,0.11455906596813079
11.654647999999996,3.966049901407181,0.11395726124627906
11.658679999999997,3.967100062028866,0.11341795817153393
11.662707999999997,3.969158164425497,0.11285351813724853
11.666763999999992,3.9675166744221455,0.11236183760365828
11.670807999999994,3.9646457928439784,0.1119192095176724
11.674864,3.962561403240888,0.11147294427581456
11.678919999999998,3.952967103937898,0.11118388483052805
11.682967999999995,3.948080338809837,0.11079562880024744
11.687016,3.9408455154320783,0.11049778262163948
11.691024,3.935072951104538,0.11020602850608907
11.695023999999997,3.9269523285273,0.11000414131838887
11.699115999999997,3.913902721975264,0.1099221841252866
11.703163999999994,3.9082523002231917,0.10969875753352175
11.707259999999998,3.905736428695895,0.10938254039720079
11.711307999999995,3.9033312820685326,0.10905282401093727
11.715399999999995,3.902044802116052,0.10868207194954663
11.719499999999996,3.899750380388625,0.10833741764978237
11.723499999999994,3.892416249786464,0.10812556814827898
11.727543999999996,3.885757886259445,0.10792407543870186
11.731587999999997,3.8779808560575444,0.10776072534368572
11.735636,3.8708795929307867,0.10760731099338589
11.739687999999994,3.8654620386541167,0.10743775102971376
11.743731999999994,3.8588150928026312,0.10731830087706107
11.747823999999994,3.855978464251063,0.10711963411499781
11.751867999999996,3.857062877899345,0.10683060279904114
11.755911999999997,3.8573607995725516,0.1065422971042746
11.75996,3.8565400545708757,0.1062879398903629
11.763987999999998,3.851011775394271,0.1061275685500831
11.768031999999998,3.8455942211176017,0.10595448612491042
11.772084,3.843089767265838,0.1057155413724234
11.776135999999994,3.8384587049642453,0.1055407314840876
11.780192,3.838313727037712,0.10529453603685421
11.784239999999995,3.835931415761415,0.10512804592932463
11.788287999999994,3.832995479985444,0.10502360769006697
11.792279999999998,3.828608702834787,0.10499440494504979
11.796315999999996,3.8256841847343486,0.10497467160175676
11.800348,3.8226489417339757,0.10496740130189859
11.804375999999998,3.822526799158508,0.10489357663757393
11.8084,3.820720947732951,0.10483501599923196
11.812435999999998,3.819025821207329,0.10476382203079199
11.816483999999996,3.815646985831618,0.10470740911079895
11.820527999999996,3.8121574255559736,0.10466337936060556
11.824523999999997,3.806873431530305,0.10464696005048454
11.828571999999994,3.7956525117548914,0.10477710198564676
11.83262,3.7824157084295837,0.10495652391366266
11.836664,3.7719812806292463,0.10508066460313974
11.840667999999994,3.766254387003838,0.10511340701268708
11.844651999999996,3.762321927128454,0.10511948856946138
11.848636,3.7614132925779087,0.10504589930120008
11.852671999999998,3.7577022825023936,0.10502553830398051
11.856707999999998,3.758244489326535,0.10487561480458642
11.86074,3.7543006117756175,0.10479325752910551
11.864771999999997,3.7466571418247177,0.10477849802413465
11.868803999999995,3.7384486296986106,0.10473897028105754
11.872791999999995,3.732256001122397,0.1046472951250653
11.876791999999996,3.726960589421195,0.10454196813721998
11.880823999999995,3.7207679608449813,0.10445029298122777
11.884859999999996,3.7165912158186614,0.10430552974346192
11.888887999999994,3.7114065290173945,0.10418651034825349
11.892927999999998,3.7070083341912046,0.10406627034643666
11.89696,3.701380747790198,0.10399749630825197
11.900999999999996,3.696982552964008,0.10387654138318997
11.90504,3.6954974585627234,0.10368918657462177
11.909071999999997,3.699949289911184,0.10335528259687615
11.913103999999995,3.704290396359709,0.1030344025413049
11.917136,3.7029160268583587,0.1028326286737575
11.921167999999994,3.7053519746569257,0.10255562552101587
11.925203999999994,3.7109224726802683,0.10219091647446714
11.929232,3.7116747116287465,0.10192840191806421
11.933267999999998,3.7096245750522545,0.10171591319403446
11.937303999999996,3.705558554925869,0.10155449913381999
11.941336,3.7049706773995967,0.10135300676617723
11.945363999999998,3.7074066251981637,0.10107225147283874
11.949399999999995,3.709731848096796,0.10080474097616987
11.953427999999995,3.716199562995151,0.10042730221767607
11.957471999999996,3.719299860193327,0.10007594034031309
11.961512,3.7280049084414446,0.09962721592722665
11.965551999999995,3.732899639389645,0.09925436547514106
11.969592,3.741715412537697,0.09879615481483281
11.973636,3.746942318185701,0.09838514704253626
11.977671999999998,3.753287890508587,0.097933046337272
11.981711999999996,3.755490970831751,0.09759193994111322
11.985755999999997,3.7567968342799034,0.09726474678217019
11.989787999999995,3.7582134226279917,0.09692944255436449
11.993811999999998,3.7607486776509607,0.09655888109447339
11.997895999999995,3.771126017073634,0.09602221113908993
12.001923999999995,3.771191071271437,0.09566193760704966
12.005964,3.7672243583694534,0.09539700452982586
12.009991999999995,3.768973121417346,0.09502705572103579
12.014027999999996,3.77184055114012,0.09461632070957836
12.018111999999997,3.7756051977379057,0.09419338221007029
12.022139999999991,3.7767889186105905,0.09379182730334164
12.026176,3.7750595390583706,0.093447650991609
12.030203999999998,3.7697412920061026,0.09314766177007675
12.034295999999998,3.7575889023290783,0.09299184339840791
12.038387999999998,3.7491361050520355,0.09277597241327394
12.042423999999995,3.734624239449781,0.09261210868728403
12.046456,3.7191044320725792,0.09247208362820639
12.050491999999998,3.6998850322953944,0.09238716819132863
12.054531999999996,3.6834680080431808,0.09225485978192409
12.058623999999996,3.6699640842158723,0.09206169380026055
12.062659999999994,3.661499869263297,0.091749267466545
12.06666,3.6530356543107216,0.09143604699096418
12.070707999999996,3.6377372967333894,0.09126136636946884
12.074687999999997,3.6196365636310865,0.09113095858577139
12.078731999999995,3.59369374612908,0.09116160909004663
12.082815999999994,3.573577129476883,0.09107699855996411
12.0869,3.5555871212745154,0.09092998597426732
12.090939999999996,3.53378679577223,0.0908493845507507
12.094963999999996,3.5136701791200338,0.09075856224961423
12.098988,3.4957908958176014,0.09059062434478168
12.103071999999996,3.479706046265192,0.09040058823195825
12.107155999999996,3.4694473975625932,0.09009486743413167
12.111155999999994,3.4656907167849464,0.08968975955632412
12.115199999999994,3.4639499195571934,0.0892342057147949
12.119256,3.457390863254577,0.08886860691773904
12.123303999999996,3.453080557977256,0.08852095798112217
12.127399999999994,3.453588511774799,0.08808145398900581
12.131491999999994,3.455558724622561,0.0876580711580613
12.135475999999995,3.457528937470322,0.08723552024739298
12.13948,3.454570166343286,0.08691594735606241
12.143511999999994,3.4479118028162676,0.08664973147762119
12.147547999999992,3.4391268308394203,0.08644193215116784
12.151523999999997,3.4368438267875256,0.08613463024051367
12.155552,3.4346715476355665,0.08581109126622923
12.159551999999998,3.436641760483328,0.08537500466675713
12.163584,3.4402956821811785,0.08493522657547292
12.167611999999998,3.44372815407916,0.08452318036814038
12.171639999999996,3.4482792926520225,0.08407439770045448
12.175672,3.4519332143498733,0.0836349451784599
12.179703999999994,3.4543577444729077,0.0832502361368735
12.183743999999995,3.4580116661707585,0.08281914277835181
12.187779999999997,3.4566258789938757,0.08250092302934574
12.191815999999996,3.446611515442213,0.08232912051236393
12.195851999999997,3.437383643865626,0.08216009280221799
12.199891999999998,3.4330847562638382,0.0818917844092342
12.203923999999994,3.4290073184619194,0.08159711928466654
12.20796,3.4221275051350313,0.08134215844448643
12.211996,3.4119909990079,0.08108119921688538
12.216083999999997,3.4008465511058223,0.08084091719366163
12.220171999999998,3.390034277903549,0.08055798710942051
12.224259999999994,3.3791112798013407,0.08028568262965152
12.228291999999996,3.370314890148961,0.07995289183143285
12.232371999999998,3.3597240667465567,0.07963900587735141
12.236403999999991,3.348911793544284,0.07934949428569701
12.240443999999997,3.337656620742271,0.07911302995607475
12.244471999999996,3.322812580440211,0.07891042525563137
12.248503999999995,3.30818998993802,0.07867854716405547
12.252531999999997,3.2934566745358946,0.07845756740208548
12.256567999999994,3.2778261422587582,0.07824340158517996
12.260599999999997,3.2584960175816384,0.07807491696664653
12.264632,3.2380472262296385,0.07793734348843721
12.268719999999997,3.2200572180272706,0.07769871976658387
12.272811999999997,3.209909294224606,0.07730945628199706
12.276843999999995,3.1989748784468652,0.07691288765680102
12.280879999999996,3.1832222035942603,0.0765950865292798
12.284927999999994,3.168477470516603,0.07625356971576121
12.289023999999998,3.1545192294140216,0.07591594153864684
12.293119999999996,3.1470629562363936,0.07549519034755867
12.297155999999994,3.1397174079586994,0.07505822017521724
12.301187999999996,3.1341662934310293,0.0746014327837032
12.305219999999998,3.1344413797531696,0.07404880000130053
12.309299999999991,3.134937915875179,0.07347011917530946
12.313336,3.1347586849220477,0.07287023779170061
12.317363999999998,3.1413028716937377,0.07217616946726302
12.321399999999995,3.147171291390286,0.071460614106493
12.325435999999996,3.1548341448368578,0.07072981428626748
12.329463999999994,3.1593624480586544,0.0700677065425644
12.333495999999997,3.1608669259556117,0.06946101766445996
12.337523999999997,3.1664031709523552,0.0687759797370223
12.341559999999994,3.174631066574134,0.06806660823478634
12.345591999999996,3.180953803545955,0.06738120740236872
12.349632,3.185825699143089,0.06677175303500438
12.353671999999996,3.1914840867153003,0.06618220844222034
12.357707999999995,3.1999448498124816,0.06556678267098741
12.361751999999996,3.2104214964595568,0.06490795215690141
12.365783999999998,3.2169771009067807,0.06430961037362366
12.369823999999994,3.223864880053808,0.06367283911355892
12.373863999999998,3.2278395587759308,0.06308614802745272
12.377907999999998,3.2290118619730825,0.06251991002579771
12.381935999999996,3.2328758157952704,0.06194249359451553
12.385967999999998,3.229794902092766,0.06147970858249159
12.389951999999994,3.2266032634903272,0.06103052891547355
12.39398,3.224198116862965,0.06058969651208318
12.398007999999995,3.2115914099106675,0.06022891919392348
12.40204,3.201787078483341,0.059843262691920016
12.406071999999996,3.189180371531044,0.05947747588946288
12.410059999999994,3.179708214803522,0.0590440135524804
12.414047999999994,3.1715761745507516,0.05854622233685754
12.418087999999996,3.161206800948217,0.0581104217048195
12.422072,3.1501616602705416,0.057648225342008766
12.426103999999995,3.142140344917706,0.057134258027583075
12.430104,3.13434047936474,0.05658998189038202
12.434084,3.1200386458868214,0.05608892875226701
12.438071999999998,3.0991241195840153,0.05564087416235511
12.442159999999994,3.076980201706393,0.05523083035962261
12.446191999999996,3.056962892278599,0.054767548528080155
12.450167999999998,3.0354947414761186,0.05437274767769486
12.454215999999995,3.015821024423662,0.05397258244663844
12.458243999999992,2.9986175081963706,0.05358885961524619
12.462331999999996,2.9788330662439795,0.05319456452702894
12.466423999999996,2.9621831745163627,0.052733900152126666
12.470464,2.9443038912139294,0.0523139510514166
12.474503999999996,2.92541666613655,0.05190640987896567
12.478539999999995,2.9119127423092417,0.05148104518426804
12.48258,2.893590559407069,0.05110312036475609
12.486672,2.878857244004944,0.05071599543604374
12.490707999999998,2.863005261927937,0.050355379830501756
12.49474,2.850631422451043,0.05000182047127466
12.498776,2.83635242432419,0.04966203104624686
12.502767999999996,2.820844034622521,0.04936179830195064
12.506799999999998,2.8020903697961415,0.04913352996116457
12.510883999999995,2.7819965884950104,0.04896277366719724
12.514972,2.764483732918981,0.04880118361636313
12.519047999999998,2.751346236818075,0.048649009490027414
