Time,Force,Position
35.402404,0.24708023678608929,0.0
35.406488,0.24438858616105383,0.0
35.410571999999995,0.24393426888578146,0.0
35.41466,0.24527438536053278,0.0
35.418696,0.24560656006033743,0.0
35.422788,0.24134192548514805,0.0
35.426883999999994,0.23405346558511855,0.0
35.430912,0.22216819641009514,0.0
35.434943999999994,0.21610912808488209,0.0
35.438972,0.20724768423469872,0.0
35.443003999999995,0.20062357373427853,0.0
35.447087999999994,0.19288079655897675,0.0
35.451116,0.18401935270879338,0.0
35.455147999999994,0.17594440083368695,0.0
35.45918,0.16786944895858055,0.0
35.463207999999995,0.15710284645843867,0.0
35.467243999999994,0.15194099500823743,0.0
35.47128,0.15058946085795327,0.0
35.475316,0.14722204315777573,0.0
35.479395999999994,0.1440874929330008,0.0
35.483436,0.14634766163382965,0.0
35.487524,0.15480045891087207,0.0
35.49156,0.16821649318931162,0.0
35.495648,0.18614144719387601,0.0
35.499683999999995,0.21518801374945262,0.0
35.503719999999994,0.2524430924311362,0.007449495730668821
35.507756,0.29834958283866625,0.014759132519380434
35.511779999999995,0.3515673684972914,0.022210806315826462
35.515912,0.40861830680689937,0.02950590595252877
35.519991999999995,0.47309126526753736,0.03681468136105952
35.524075999999994,0.5384842759542529,0.04422278972328052
35.528156,0.6069239473168742,0.05181659657442775
35.532188,0.6784102793554013,0.05954803517473924
35.53622,0.753164721869704,0.06737389552041777
35.540308,0.8326495339100012,0.07529120135776257
35.5444,0.9120464564014292,0.08359384014564379
35.548492,0.9962844733187866,0.09181426348992439
35.552519999999994,1.0802131508874053,0.10030414325918789
35.556552,1.1689829228819533,0.10876293841741902
35.560579999999995,1.265594779276205,0.11685336868497377
35.564612,1.359049250094616,0.12479619400509068
35.5687,1.4448488332865947,0.13273275255731268
35.572784,1.5257959043771108,0.1405678091392265
35.576828,1.6027876802411767,0.14823215015323324
35.580924,1.6689900182540347,0.15593689982307388
35.585024,1.7303398441654307,0.15606700868038634
35.589119999999994,1.7824732161757728,0.1564478844488545
35.593152,1.8322242769098183,0.15649543016375742
35.597188,1.875339809467911,0.15667468156354028
35.60122,1.9129384805249323,0.156815440887518
35.60522,1.9446881153810769,0.1569703284125539
35.609255999999995,1.9745097562361977,0.1568697391364433
35.613288,2.0041978368403175,0.1564541839777266
35.617264,2.0326336905185562,0.1558391097487683
35.621292,2.058355058220693,0.15504634563427358
35.625339999999994,2.086069474121657,0.1537463960061073
35.629332,2.10826702852155,0.15248315579446492
35.633371999999994,2.1290902134200933,0.15088253404313332
35.637372,2.145183028792642,0.14929044372260677
35.641424,2.152525125214942,0.14813935620727092
35.645467999999994,2.1577406131874137,0.14715886240606488
35.649519999999995,2.163299693535223,0.14624532163126092
35.653507999999995,2.1712182498082635,0.14529952306727895
35.657456,2.177685964706617,0.1445244400712041
35.661508,2.18863976398003,0.1435597658389912
35.665504,2.1998264307288458,0.1427082821109583
35.669552,2.2154991818527203,0.14165844389394627
35.673548,2.2327449169267495,0.14063316009892346
35.677536,2.246291059600796,0.13975700617820316
35.681576,2.2600586520747123,0.13884224833858885
35.685604,2.273936969448563,0.13787786192916288
35.689632,2.288712503697426,0.13689835956457994
35.693672,2.302590821071277,0.13599334492072712
35.6977,2.3147854295950396,0.13515230430712938
35.701739999999994,2.326758588318932,0.13436811208928154
35.705772,2.3377238052678777,0.13365664813957862
35.709756,2.348467572416954,0.13299069021695248
35.713812,2.3608950484161184,0.13229677423476416
35.717859999999995,2.3741090163903618,0.13159816369884125
35.721908,2.3916983438397277,0.13076654945724708
35.72596,2.409398396189028,0.12991194644896098
35.730008,2.4301222738631694,0.12890761429303316
35.733988,2.4453521253873047,0.12811386890322318
35.738015999999995,2.4577796013864703,0.1274199529210349
35.742051999999994,2.464602326335694,0.12695934966422384
35.746088,2.468954850459753,0.1265482934658567
35.750063999999995,2.469497057283894,0.126305169417481
35.754099999999994,2.462529354408136,0.12637593225256877
35.758128,2.461055677682384,0.12623702889515664
35.762172,2.459139101356893,0.1261828999261446
35.766208,2.463724492956354,0.12587223680294757
35.770239999999994,2.465507509030845,0.12567558625407504
35.774244,2.4621400913306677,0.12575651396447682
35.778299999999994,2.4610214246557858,0.12582783085543225
35.782352,2.4643888423559632,0.12575383531273987
35.786336,2.4683213022313484,0.12571289458275134
35.790428,2.4738267460568872,0.1256562760030083
35.794459999999994,2.4779920734076737,0.12570696741771425
35.798488,2.4811494589835155,0.12580406255979126
35.802471999999995,2.4828445855091363,0.12589667082495312
35.806452,2.485547653809705,0.1259442814682434
35.81048,2.48623483856038,0.1260809350006682
35.814516,2.4884950072612084,0.12620472864112053
35.818544,2.4973678687869247,0.12608863166402778
35.822592,2.511845481362581,0.12577952777282075
35.826628,2.5296905116384156,0.1254038052366287
35.830659999999995,2.5532510178641257,0.12482319031075502
35.8347,2.581186883564959,0.12410772239748113
35.838787999999994,2.6071068657159007,0.12349465187324726
35.842876,2.630003022542002,0.12299676771703957
35.846964,2.650096803843132,0.12262853625244792
35.851099999999995,2.671198526919209,0.1222139899259378
35.855231999999994,2.697450683769955,0.12154670779866017
35.859376,2.721564814495339,0.12087962602965605
35.863468,2.734690892920712,0.12055461419273537
35.867507999999994,2.7464654371958006,0.12021049487354683
35.871544,2.756888447320605,0.11984698811636699
35.875643999999994,2.7648412566202434,0.11951788480354701
35.87974,2.7712210819697285,0.11919863789381954
35.883832,2.77558502376932,0.11896809336167115
35.887876,2.7818541242188695,0.11867650336524244
35.891907999999994,2.7880124997684845,0.11840261190223483
35.895996,2.799210584192833,0.11792383823838523
35.900084,2.805479684642383,0.11764121455479148
35.90412,2.807717017992146,0.11752445520714147
35.908156,2.809278584266767,0.11739704138035442
35.912184,2.806132616366459,0.11741625174561773
35.916211999999994,2.802310881391009,0.11742316683865936
35.9203,2.801402246840464,0.11733022165146972
35.924332,2.807549204714546,0.11696767534739791
35.928363999999995,2.8119017288386043,0.11665170532338795
35.932396,2.8180486867126873,0.11629740393503266
35.936423999999995,2.821393269061799,0.11602421939610699
35.940459999999995,2.82339773493616,0.11583753590984158
35.944488,2.83313356031029,0.11539589669881548
35.948532,2.843877327459366,0.11492261248448944
35.952568,2.8536131528334954,0.11448686608149178
35.956599999999995,2.8682779621824235,0.11388801843419194
35.960635999999994,2.8848479301813104,0.11322895482070039
35.964727999999994,2.9025365648550787,0.11251492836047099
35.968779999999995,2.913723231603894,0.11197673248648135
35.97282,2.9271472317024725,0.11133840177716618
35.976851999999994,2.935863697626123,0.11084244566031053
35.980936,2.9471496715993406,0.11019530319677702
35.985024,2.960783703822256,0.10942856574006699
35.989116,2.97374196897003,0.10865550384798556
35.993095999999994,2.9879296256926193,0.10781441801477884
35.997124,3.0025601820149497,0.10691256350810792
36.001208,3.0118074370872083,0.10612393191684992
36.005232,3.016679332684342,0.10542194194196133
36.009283999999994,3.021661953181411,0.10470558834928446
36.013276,3.0211505475284746,0.10410621628920473
36.017308,3.0198526499004608,0.10350357174944433
36.021356,3.018997651872187,0.10283278542605724
36.025403999999995,3.0135458445689194,0.10226511510456954
36.029448,3.0052916617406806,0.10176391545033003
36.033504,2.9981561455873242,0.10121088560298343
36.037552,2.985194428584157,0.10082394259061153
36.041604,2.974027145331013,0.10040244226437696
36.045652,2.9626384122779994,0.10001205507537331
36.049708,2.952933388075074,0.09960088481109322
36.053764,2.9375128879222743,0.09933975038204076
36.057816,2.9202979540194502,0.0991126278008479
36.061868,2.899948469891851,0.0989990734392696
36.065916,2.874780726689389,0.09902327638025377
36.06992,2.8477078248369683,0.09909531681706114
36.073968,2.8175003727597727,0.09929225619261563
36.078072,2.7860635291077602,0.09955142497428028
36.082164,2.7584370027556653,0.09970252104834831
36.086216,2.731486243478712,0.09986211138110003
36.090264,2.700725166901842,0.10013347437370954
36.094368,2.672877190749877,0.10032498572962774
36.09852,2.6516419074227993,0.1003224387060396
36.10268,2.6273827987708818,0.10042859895230428
36.106728,2.6076097744940228,0.1004424811474806
36.110764,2.585820866667271,0.10053424405133979
36.114816,2.562913292165637,0.10067575884367834
36.11886,2.5430295429888434,0.10070952219129567
36.122908,2.520454143187014,0.10078935242074001
36.126948,2.49798946828512,0.10084951732975211
36.131044,2.477762126732989,0.10080190087335965
36.135084,2.4650446948807567,0.10055674724592972
36.139132,2.4559161305285726,0.10024026503022727
36.143176,2.4465661163765184,0.099958647926077
36.14722,2.4410264195243814,0.09956404344813316
36.151276,2.43817837329728,0.09911303768821395
36.155324,2.4393620941699647,0.09851091540610032
36.159372,2.4445775821424363,0.09777060884923608
36.163468,2.4458720279150565,0.09715306324638845
36.167516,2.4478422407628186,0.09655821461322699
36.171572,2.453512046010563,0.09586433328292727
36.175632,2.461984226783277,0.09510604534920904
36.17968,2.4625035982563523,0.09462165814965168
36.183728,2.469414212754446,0.09399878073258887
36.18778,2.478229985902498,0.09334555295437665
36.191764,2.493326277175633,0.092576162981597
36.19586,2.511114219073803,0.0917649681188294
36.199944,2.527562044497222,0.0910415817914242
36.203924,2.5446856369957835,0.09033788946574466
36.20796,2.5629278961692252,0.08959207023001911
36.212044,2.5847590228427153,0.08881066782637238
36.216072,2.598969514916371,0.08822074997265292
36.220156,2.6142986736649085,0.08759524264765144
36.22424,2.6336595995132326,0.08684709760402728
36.228268,2.6539177422365685,0.0860950991056856
36.232356,2.673057218285022,0.08539766947222499
36.236392,2.6938804031835653,0.08471189249349513
36.240488,2.7104503711824517,0.08418782148319598
36.244576,2.732735815131214,0.08354478240625154
36.248604,2.751543116479864,0.08292952439719077
36.252648,2.7723663013784074,0.08226869244251775
36.256684,2.7909521529271872,0.08170570368845964
36.260768,2.813569771575754,0.08102429399815178
36.26486,2.8365195649241253,0.08032108921473864
36.268896,2.8499435650227047,0.07980475552371348
36.272988,2.863810464721023,0.07924199706604648
36.277076,2.874985713794306,0.07871389507581945
36.28112,2.8901927299673753,0.07808957596342507
36.285264,2.905621195940314,0.0774362956009356
36.2894,2.9199309952383716,0.07683035858941478
36.293488,2.9294225354615655,0.07632604848369699
36.297528,2.9428351178846115,0.0757311747918041
36.30158,2.953334599882753,0.07520034895242339
36.305616,2.9619289232309343,0.07470975296333617
36.309668,2.97253913012901,0.07418359332111231
36.313752,2.9832600619270213,0.07364328157629221
36.317844,2.9912893430999965,0.07313509821583379
36.321932,2.999761523872711,0.0725655764399817
36.32606,3.0044233873455086,0.07206170049539348
36.330152,3.0146900018682468,0.07148624400544044
36.33424,3.0211462990910674,0.07097138344310601
36.33834,3.027934771013693,0.07041347393743966
36.342436,3.03281808428636,0.06988556051931481
36.34652,3.0338910802591097,0.06941846092864953
36.350552,3.043703377506576,0.06880120350057752
36.354644,3.047800198804166,0.06826917126488415
36.358732,3.0539129036516495,0.06769756077977705
36.36282,3.0553180743242048,0.06718821855411358
36.366916,3.056723244996759,0.06667988074141246
36.371012,3.060255024119142,0.06612256217473349
36.37504,3.0612058775164246,0.06555963975538695
36.379124,3.0650698313386124,0.06495920431657763
36.38316,3.0670286265108415,0.06437675167744757
36.387192,3.068090204808059,0.06379896171850358
36.391236,3.0661279577804366,0.06328444649398778
36.395216,3.064387160552683,0.06274226613730396
36.399196,3.0616384215499837,0.06221748592239844
36.40322,3.0594547247224915,0.061729061696560526
36.4072,3.059176186544957,0.06121812453660028
36.411184,3.0580004314924114,0.06071958389412173
36.41512,3.0597377768647704,0.06018103180370656
36.419156,3.0634910057870233,0.05961280039484499
36.423132,3.068362901384157,0.05901363480899007
36.427124,3.0740212889563683,0.05842421954193454
36.4311,3.073853475678769,0.05791015333988056
36.435128,3.077495979701088,0.057354335268426204
36.439132,3.076430949548477,0.05683711857350035
36.443176,3.073571485645843,0.056316887551444136
36.447228,3.0689175879931847,0.055799387268813574
36.45128,3.060342648140674,0.055333700558302945
36.455328,3.056364517563158,0.05483704421848545
36.459372,3.047457403010843,0.05440898059955892
36.46342,3.04247133065838,0.05392703272673064
36.467472,3.038161025381059,0.05346949428722421
36.47152,3.028245969053797,0.05304534410532799
36.475568,3.016315029176642,0.05265008943039095
36.479608,3.00079522179944,0.0522548179635898
36.48366,2.986504805997054,0.051813405005429074
36.487704,2.9722143901946687,0.05137238216193703
36.491748,2.952208498442408,0.05097920572249103
36.495784,2.929068056465372,0.05064529833745057
36.499836,2.902903789163496,0.050353852615765804
36.503884,2.8728184796617677,0.05010341941754513
36.507924,2.8399307946350696,0.04986722704983264
36.511968,2.8071538345083056,0.04961040053137337
36.516012,2.772139541031778,0.04941231240631159
36.520056,2.7425085488053225,0.04920455178544777
36.524036,2.7173636409539252,0.048988130356142516
36.528088,2.6927837752777357,0.04881368607698577
36.532136,2.6671959678265997,0.04865161719268551
36.536188,2.6425053772504756,0.04848488148051784
36.540236,2.6151231360493163,0.04831611644098274
36.544236,2.5865115032733397,0.048190651708576095
36.54828,2.5563268865472093,0.04803006566840937
36.552328,2.5344386714960554,0.04783371679527428
36.556372,2.512329006645031,0.047666904688533504
36.56042,2.4956026430440783,0.047493955301046276
36.564396,2.4747337874434034,0.047401305952479066
36.568344,2.449046672767865,0.047356809042770655
36.572264,2.425940483817427,0.04732957560624335
36.576244,2.401937077991978,0.04730561024822667
36.580224,2.3778229472665937,0.047297197836728026
36.58426,2.359202842691215,0.04726799210385903
36.588248,2.339685521240825,0.04723840499492043
36.592292,2.3245435592655586,0.047224155216209346
36.596324,2.3087258302151508,0.047173680720763264
36.60036,2.2873033501148017,0.0471607397096528
36.604388,2.261173335839524,0.047186192423601385
36.608388,2.2372806549140094,0.047132595038334606
36.612428,2.2140637410636366,0.047119866695520915
36.616452,2.187147234813282,0.04712011614582496
36.620488,2.1665112466880103,0.04712031099349392
36.624516,2.143183607937703,0.04712053749079972
36.628552,2.118515852712644,0.047200457456389455
36.632584,2.09115644686255,0.04727443581694557
36.636624,2.065923649462284,0.04728736715147815
36.640656,2.034864651212208,0.04738636250724998
36.644692,2.0041378276619364,0.047428539848192224
36.648732,1.9744189458866113,0.04745379588357605
36.65276,1.9439135721362093,0.04746115654927268
36.6568,1.9164320237106474,0.04739821430469685
36.66084,1.8871560415350617,0.04733411932032606
36.664832,1.8551884087344406,0.04726269823221726
36.668864,1.8277068603088789,0.047191198143643115
36.672844,1.7996602697081099,0.0470433667432779
36.676872,1.7694870706575123,0.04696241670444355
36.680904,1.744021405781844,0.04683562290475993
36.684932,1.724160491956116,0.046663631426521156
36.688968,1.7009435781057434,0.04663087145021163
36.693056,1.6770508971802287,0.04655457677231083
36.697144,1.6528260415549096,0.04655496126740519
36.70118,1.62602026020449,0.04652646419192329
36.705216,1.6008981877041588,0.04652687701219319
36.709244,1.5767840569787748,0.046512918490037206
36.713328,1.5480731169783961,0.046523497245808725
36.717424,1.5182435103031362,0.04657899473143151
36.721508,1.4943508293776215,0.046500474602633034
36.725548,1.470236698652237,0.04647686557537603
36.72958,1.448814218551888,0.04645242699207339
36.733672,1.4294076220014322,0.046360339555783815
36.737764,1.411684734301066,0.04628855629647072
36.741856,1.3966534972257347,0.04621760085507142
36.745936,1.3785984348255633,0.046236485572384564
36.749968,1.3607648222252617,0.04618745340472588
36.754004,1.3378915007502268,0.046280861039852315
36.758084,1.3197257134501206,0.046326993215181814
36.762172,1.2978603337500323,0.04639718063086992
36.766256,1.2724060865498967,0.046451176233462156
36.770228,1.2473947389495004,0.04638589163449426
36.774308,1.2260829837490863,0.04628564998600629
36.77838,1.2030875196985835,0.04616010104506939
36.782472,1.1818864893981045,0.04602472918523277
36.786508,1.16101763379743,0.0457745671271248
36.790604,1.1440698203966075,0.0454236968092838
36.794632,1.130710874495832,0.04506488411410344
36.798712,1.1163439868201102,0.044735261507697854
36.802788,1.0999612155944944,0.044465005049799035
36.806832,1.0882859785438077,0.04413249598532556
36.810908,1.0748163077430977,0.04378750053822094
36.81488,1.0582120867176128,0.043579176523542235
36.818968,1.0332007391172162,0.04132114644224575
36.823052,1.003703307141761,0.03906311636094925
36.827144,0.9743166000662404,0.0367420292780877
36.831236,0.9391036921409097,0.034488267007482254
36.835332,0.9060173926654072,0.03216873738120313
36.839424,0.8693422256898574,0.029848672406681584
36.84352,0.8317698418392956,0.027530266040595504
36.847612,0.7930787913138524,0.02525160649354282
36.851708,0.752261132338581,0.02301529469289497
36.855796,0.7087518227382741,0.020815846267416414
36.859892,0.6682663384628071,0.018586021680827042
36.86398,0.6230733200124114,0.016394922486250074
36.868076,0.5757536931121873,0.014289671944555816
36.872164,0.5246371242353233,0.012254928844496605
36.87626,0.47441777223347115,0.010225886895172056
36.880352,0.4263116533581701,0.008167168114655756
36.884392,0.3788946768812883,0.006114033762547554
36.888428,0.329572541754448,0.004090900382741665
36.892516,0.28204484037763133,0.002080253385566928
36.896604,0.23743023942572,0.0
36.900696,0.19931760639876106,0.0
36.904732,0.16569105774686127,0.0
36.908768,0.13576410149494358,0.0
36.912856,0.11054467941795479,0.0
36.9169,0.08700896619105476,0.0
36.920932,0.06616490358919022,0.0
36.925024,0.04890970848737295,0.0
36.929112,0.03445688891052603,0.0
36.933196,0.023814386633596144,0.0
36.937224,0.014855593206755039,0.0
36.941252,0.006572566855056009,0.0
36.945276,0.0019891329033391437,0.0
36.949356,0.00020807447659262,0.0
36.953448,0.00020807447659262,0.0
36.957528,0.00020807447659262,0.0
36.96156,0.0,0.0
36.96564,0.0,0.0
36.969672,0.0,0.0
36.973752,0.0,0.0
36.977784,0.0007731166517998289,0.0
36.98182,0.0043486088285699985,0.0
36.985852,0.004348608828569998,0.0
36.989888,0.005686767655577035,0.0
36.993924,0.00825431805740051,0.0
36.99796,0.008805984909330598,0.0
37.002004,0.009357651761260685,0.0
37.00604,0.009357651761260685,0.0
37.01008,0.009687868813321027,0.0
37.014116,0.010915302740393195,0.0
37.018148,0.010915302740393195,0.0
37.022176,0.010915302740393195,0.0
37.026204,0.010915302740393195,0.0
37.03024,0.010915302740393195,0.0
37.034268,0.010915302740393195,0.0
37.0383,0.010915302740393195,0.0
37.042328,0.010915302740393195,0.0
37.046368,0.010915302740393195,0.0
37.050396,0.011921286867595618,0.0
37.054436,0.011921286867595618,0.0
37.058472,0.01114817021579579,0.0
37.062504,0.007572678039025621,0.0
37.066544,0.007572678039025621,0.0
37.070576,0.006234519212018583,0.0
37.074616,0.0036669688101951072,0.0
37.078652,0.0031153019582650207,0.0
37.082692,0.0025636351063349342,0.0
37.08672,0.0025636351063349342,0.0
37.090696,0.002233418054274591,0.0
37.094668,0.0010059841272024236,0.0
37.0987,0.0010059841272024236,0.0
37.102728,0.0011033337038601721,0.0
37.106704,0.002208625055464615,0.0
