Time,Force,Position
11.983068,0.23855314728983248,0.0
11.987108,0.24280636418948903,0.0
11.99114,0.24302781398935883,0.0
11.995176,0.2384310047143648,0.0
11.999208,0.23843100471436482,0.0
12.003232,0.23820955491449503,0.0
12.007264,0.2448222477393824,0.0
12.011292,0.25154566546420465,0.0
12.015328,0.2592770249639736,0.0
12.019356,0.27160519373873654,0.0
12.023388,0.28426553721330405,0.0
12.02742,0.294344954962771,0.0
12.031456,0.3054323144871847,0.0
12.035488,0.31651967401159836,0.0
12.039524,0.3286149753109587,0.0
12.043556,0.33622419223525984,0.0
12.047592,0.3429361922845492,0.0
12.051632,0.3464029172091288,0.0
12.055664,0.3471779915086729,0.0
12.0597,0.34885028268322893,0.0
12.063736,0.3513090658328617,0.0
12.067768,0.351186923257394,0.0
12.071852,0.35599376465672483,0.0
12.07588,0.36539741533104975,0.0
12.079908,0.37199869048040424,0.0
12.083948,0.3766948069798001,0.0
12.088032,0.3802722568043147,0.0
12.09212,0.3866520821537994,0.0
12.096208,0.38652993957833176,0.0
12.100236,0.382597479702947,0.0
12.104264,0.37564119450272215,0.0
12.1083,0.3636452004277639,0.0
12.112328,0.3526571481277523,0.0
12.116412,0.34659807980253926,0.0
12.120492,0.33942034480244465,0.0
12.124528,0.3339263186524388,0.0
12.12856,0.3293295093774448,0.0
12.132596,0.3301045836769889,0.0
12.136636,0.33054748327672845,0.0
12.140668,0.3250534571267226,0.0
12.144704,0.3185514892017701,0.0
12.148792,0.3157491136767998,0.0
12.152828,0.30913642085191245,0.0
12.156864,0.29893486052697776,0.0
12.160888,0.29131422592714373,0.0
12.164916,0.2844800833023866,0.0
12.168948,0.27585150692760585,0.0
12.172976,0.26643643857774807,0.0
12.177004,0.26430983012791986,0.0
12.181032,0.2649855972030619,0.0
12.185068,0.2695824064780559,0.0
12.189096,0.2782109828528367,0.0
12.19308,0.2839264588027122,0.0
12.197116,0.2847129507777892,0.0
12.2012,0.2838157339027773,0.0
12.20524,0.28427005117804965,0.0
12.209276,0.28922187050391396,0.0
12.213316,0.29151629223134135,0.0
12.217352,0.30179777628500604,0.0
12.221384,0.323090147989748,0.0
12.225416,0.35438546557062056,0.007067527850132106
12.229448,0.38862813660299694,0.014555207557976315
12.233428,0.42973920328672904,0.022197064211448177
12.23746,0.48152898292173374,0.029647115118251112
12.241488,0.5397328409328218,0.03697866886068679
12.245524,0.6071531528449636,0.0442159553980351
12.249552,0.677631543108544,0.05176375164567064
12.253596,0.751168011723563,0.0595115013772049
12.257632,0.8274189663146831,0.06729928970682533
12.26166,0.9099732743819519,0.07502368884763468
12.265692,1.0001824700756532,0.08265384606904146
12.269732,1.0991652200706685,0.09018143423646637
12.273768,1.2080401910418799,0.09765751378187525
12.277804,1.325910166114275,0.10508828103870144
12.281836,1.4525536954879843,0.11252988622142016
12.285864,1.589520927762096,0.11973352236869067
12.289892,1.7274961018111545,0.12685807814460737
12.293928,1.864772673434005,0.13397179025882036
12.297964,1.9964102409803166,0.141009471426736
12.301992,2.1221873546502192,0.14794646417113413
12.306024,2.2399774059938844,0.14777451054804266
12.310052,2.3539228870110342,0.14714150163490783
12.314088,2.460889247476893,0.14639521920847662
12.31812,2.5571768949914793,0.14589190374662103
12.32216,2.6425643797549236,0.14560244733585986
12.326192,2.7209727439670774,0.14534793674823118
12.330228,2.7981174635778157,0.14471476465718666
12.334264,2.8709747132622994,0.14389768357413427
12.338296,2.942236143645562,0.14290856628602336
12.34234,3.0061862787777307,0.14199844004351792
12.346372,3.0605763676335083,0.14119152231303833
12.350408,3.1033905266630013,0.14056253606847433
12.354436,3.1393362900411383,0.13992789242483353
12.358468,3.165611282242949,0.1393731582386182
12.362496,3.1869230374433637,0.13872550611851106
12.36652,3.194765121843067,0.13840740557578537
12.370548,3.1951966037672745,0.1382367235800035
12.374576,3.197754694141309,0.13796698459831294
12.378612,3.201099276490421,0.1376917099151419
12.38264,3.2005228166396806,0.13756671938534668
12.38668,3.1962467643889587,0.13755966917833592
12.390712,3.191405669963029,0.13752854074374227
12.394748,3.1896991257618748,0.1373582362937985
12.398788,3.1916921739607016,0.137072409073561
12.40282,3.195811830609358,0.13668378178191365
12.406856,3.1998207623580788,0.13631496154272169
12.410896,3.2012487683816993,0.13600667312353504
12.414928,3.204803382855148,0.13560454450704487
12.41896,3.2056663467035618,0.13528093175447886
12.423044,3.209553135876815,0.1348452421856524
12.427128,3.215345083700027,0.13434938476065983
12.431204,3.2269632323730493,0.13365748716105258
12.435288,3.2347710637461544,0.13308428151010324
12.43932,3.2434761119942714,0.1324825942727738
12.443352,3.2503867264923647,0.1319333815700995
12.44738,3.25819455786547,0.13134957741712056
12.451412,3.2701448812382967,0.13059618184844657
12.455444,3.277387670436195,0.12999413646364863
12.459476,3.2810415921340454,0.12948584671378122
12.46352,3.2864899475819196,0.12892796123405548
12.467552,3.2956378954297767,0.12825749858319913
12.471584,3.303556451702816,0.1276579902748548
12.47562,3.3105777911008443,0.12709115695979903
12.479664,3.3149074798738374,0.12659435876175132
12.483692,3.320920877496919,0.12606963159339202
12.487732,3.325250566269913,0.12557505279608336
12.491768,3.3321611807680065,0.12503312723819685
12.4958,3.338174578391088,0.1245201375240979
12.499832,3.3431800342392233,0.12404609222164178
12.503856,3.3436994057122984,0.12367826249065392
12.507884,3.343100110510493,0.12336163402320889
12.511852,3.3403742068588587,0.12313163081737948
12.515776,3.3394427369572477,0.12285949318657861
12.51976,3.3385112670556376,0.12258610681105546
12.52376,3.334777421629057,0.12238713562692373
12.527816,3.3361940099771443,0.12199837246319926
12.531876,3.334365323200522,0.12174473767335155
12.53582,3.336457678623752,0.1213678201825464
12.539792,3.3391150762221886,0.12101207435529616
12.543788,3.3410967067454838,0.12064608528416977
12.547724,3.34419700394366,0.12023527136534488
12.55172,3.3471865762419015,0.1198369096585292
12.555648,3.350065423640208,0.1194569525870018
12.559648,3.3519363292635678,0.11910801220566421
12.563652,3.350218367386881,0.11883616356859787
12.5677,3.3492868974852703,0.11855889182049494
12.57168,3.3427506765337194,0.11842930733772875
12.57568,3.333522804957133,0.11835814511184668
12.579708,3.3214925578555765,0.11836305538474913
12.58374,3.3111460196041085,0.11834259198633172
12.58772,3.299005047602617,0.11836412672220416
12.591748,3.2830537583012083,0.11850073239887049
12.595776,3.271920728074663,0.11848439992436016
12.599816,3.262582131598142,0.1184269633728963
12.603844,3.2577296194966796,0.11826893738671854
12.607888,3.2476159487206138,0.11831505916879283
12.611832,3.237834452644353,0.11831665610302722
12.615768,3.224918406343317,0.11843653831475318
12.619804,3.213231751617098,0.11849157481982689
12.623844,3.2041260226159785,0.11850039962337428
12.627872,3.189869859840192,0.1186990890711477
12.6319,3.175502972164469,0.11891663409021035
12.635884,3.1580015342639722,0.11925741839531566
12.639912,3.1461048474134157,0.11944291735506715
12.643944,3.137575578263037,0.11958147642470786
12.647972,3.1251252669128062,0.11985267805368237
12.652008,3.1173824897375053,0.11999312025371604
12.65604,3.111212696512357,0.12012400005849073
12.66004,3.109639712562203,0.12013454401006984
12.664068,3.106161569962091,0.12020348489500879
12.668108,3.1057072526868184,0.12016127346424052
12.67214,3.1091739776113987,0.11998566506794126
12.676176,3.109838327011008,0.11989197049776538
12.680208,3.1115106181855636,0.11976398675168472
12.684252,3.1112777507101606,0.11969178272227081
12.68828,3.117092533884438,0.11941240583403703
12.692308,3.1225751423589108,0.11917700209906047
12.69634,3.1292871424081996,0.11887529007932165
12.700376,3.1358884175575543,0.11859016553969597
12.704404,3.136884941656968,0.11845162300024223
12.708432,3.142245407555974,0.11812434843482993
12.712468,3.1526455823297126,0.1176281526323758
12.716496,3.1651723655532793,0.11704126633808014
12.72054,3.1692920222019354,0.11667731012375311
12.724576,3.1766569539753013,0.11618759609635618
12.728608,3.1897373616985427,0.11553138716043922
12.732644,3.204833652971677,0.11482107770148062
12.736688,3.2199299442448117,0.114110768242522
12.740724,3.2294214844680056,0.113539226273436
12.744768,3.2436205588661284,0.11284683339151702
12.7488,3.257266008764577,0.11223586999022696
12.752832,3.268895575113133,0.1116934739005415
12.756856,3.276493374361901,0.11128140592217196
12.760884,3.2811780731857647,0.11095694917156304
12.764916,3.285973496909563,0.11061785534895147
12.768944,3.2858399366585624,0.1104317681859718
12.772976,3.2879437097573243,0.11015138405790717
12.777004,3.2889288161812056,0.109917761396106
12.78104,3.2887952559302054,0.10973089047008686
12.785068,3.2944878965290147,0.10937603604953267
12.789104,3.2979432037780616,0.10911765208711513
12.793192,3.294564368402351,0.1090571062386346
12.797276,3.2902883161516288,0.10901377376239568
12.801312,3.2964352740257103,0.10870647351650874
12.8054,3.295748089275036,0.10859387376826317
12.809488,3.293377195674273,0.10850065092654612
12.813576,3.287982476748668,0.10849956750517595
12.817664,3.281801265847988,0.10850042101276576
12.821704,3.2804383140221702,0.10837562255571487
12.825732,3.276272986671383,0.10831436784260956
12.829772,3.2707561251703114,0.10822789330526056
12.833808,3.2662472054441865,0.10811065495562316
12.837896,3.263975619067825,0.10790161732178885
12.84198,3.263830641141291,0.10761601956958497
12.846064,3.261780504564799,0.10737666200982456
12.8501,3.2597303679883076,0.10713618947304997
12.854132,3.256672289636869,0.1069272481896347
12.858216,3.2537249361853653,0.10670267611652808
12.862304,3.25592801650853,0.1063116374920233
12.866384,3.2552179964067895,0.10599906351437985
12.870416,3.2556266429799305,0.10564104429272114
12.874504,3.259956331752924,0.10517362437488287
12.878588,3.2652939623008637,0.10467524193611973
12.882676,3.2631216831489036,0.10435107489056833
12.886764,3.2649811710967307,0.10390607634949993
12.890792,3.2667299341446228,0.10347616368831046
12.894824,3.267913655017308,0.10301767323577059
12.898904,3.2718997514149635,0.10250169029155498
12.902984,3.275099355837542,0.101989507040264
12.907056,3.2737021509851263,0.1015596893826662
12.911136,3.274320829682604,0.1010720000822231
12.915224,3.2741530164050046,0.10058386106383116
12.919312,3.274993144902352,0.10006616747803083
12.9234,3.2709042894249007,0.09967628111096938
12.927492,3.2697285343723546,0.09921211969219942
12.931588,3.2677662873447315,0.09874459490658619
12.93568,3.265582590517239,0.09830651239350957
12.939772,3.264517560364628,0.09782345329269684
12.94386,3.2566183875872596,0.09751602741505136
12.947948,3.2486084899099574,0.09722198191290099
12.952036,3.2386934335826965,0.0969700306211719
12.956124,3.225976001730465,0.09677494991107408
12.9602,3.211464136128209,0.09660680566980798
12.96424,3.1989681540758474,0.0963779263159072
12.96828,3.184567013373527,0.09618975293349374
12.972312,3.1674742220461707,0.09604386088646145
12.976348,3.149152039143998,0.09595643587960731
12.980388,3.129256872291671,0.09586110898717404
12.98442,3.109029530739541,0.09580766756240072
12.988456,3.0947391149371546,0.095593546762721
12.992484,3.0755197151599702,0.09550758102096119
12.996512,3.0571975322577982,0.09540464243947036
13.000544,3.0407805080055836,0.09525293925569525
13.004572,3.0291817428282335,0.09498822895354256
13.008564,3.014891327025848,0.09476175672327415
13.012544,3.0036247365483018,0.09444714540986812
13.016584,2.9925795958706263,0.09410163056957484
13.020568,2.982431672067962,0.09374137085548236
13.0246,2.977102007340162,0.09327091952923723
13.02868,2.9750176177370715,0.09268979400432127
13.032712,2.975957053458821,0.09202625240116424
13.0367,2.981936198055304,0.09123331529978967
13.040708,2.988923284426734,0.09040882723180323
13.044624,2.992997270373258,0.08964460216534342
13.048612,2.9979684731947946,0.0888680110611675
13.05266,3.0058527764412357,0.08802032428463331
13.056684,3.0158636881375056,0.0870999382038257
13.060728,3.0237479913839476,0.08624654788898384
13.064768,3.0310672524551827,0.08535882690688491
13.06882,3.036149180176654,0.08455832864111407
13.072812,3.0471680336478704,0.0836117103900767
13.076848,3.059194828894033,0.08264666166936525
13.08088,3.06718985704041,0.0817888847022817
13.084884,3.07249323456175,0.08096320629488979
13.088932,3.077907336983026,0.08011461772931984
13.092964,3.0833214394043016,0.0792761178256387
13.09696,3.0851466743255305,0.0784698599777333
13.100996,3.086074692371747,0.07767821156097612
13.105036,3.08240590114297,0.0769486136308625
13.109028,3.0745946179144714,0.07633081696866899
13.113076,3.067569826661049,0.07572259257631657
13.117068,3.052702951007924,0.07526712050312832
13.121064,3.039741234004757,0.07477668711269946
13.125036,3.030700559201441,0.07420541993294134
13.129072,3.0199761755480363,0.0736313594821146
13.133056,3.0101490087696443,0.0730492247023537
13.137096,3.002227000641211,0.07243934969698958
13.141128,2.9953129342877234,0.0718023912519648
13.145168,2.991201243459207,0.0711313541131478
13.149204,2.9900026530555954,0.07041363205840953
13.153244,2.9873532212772975,0.06978005531038625
13.157332,2.9808934721990834,0.0691967285147639
13.16136,2.9776789982455782,0.06852238645719268
13.165388,2.9783855664919257,0.0677831749355731
13.169436,2.984696885788213,0.06698986779190176
13.173528,2.9879843797596606,0.06625471737776686
13.17762,2.996765899881114,0.06547211965164208
13.18172,3.007341853752591,0.06468847067647383
13.185812,3.0235225586740087,0.06385318593454693
13.189912,3.0428378138202015,0.06294989739040226
13.194008,3.0603586352163705,0.06206820093222047
13.198104,3.0865080329873202,0.06108160398308558
13.202156,3.1113173142835184,0.060162976157895565
13.20626,3.1339999871298887,0.05930001411100849
13.210312,3.1562397603765198,0.05848345652302437
13.214412,3.1774715918482035,0.05769310054209449
13.21844,3.1957903228949824,0.05694951439437707
13.222468,3.217132879266601,0.05616606267090058
13.226552,3.2374674938632735,0.05541390773700102
13.230632,3.2532052991849514,0.054690908139290194
13.234716,3.2655756868064523,0.05394868759989427
13.238696,3.2826536086028817,0.05316929754863953
13.242792,3.299288630799572,0.05245284726569841
13.24688,3.311670436096606,0.05182609895380342
13.250972,3.3189018076189707,0.05129323269946644
13.255072,3.325235962266324,0.05075523439792641
13.259128,3.3306729000386657,0.05022576828416328
13.263228,3.330394361861132,0.04974047396636267
13.267276,3.321487247308817,0.04932601884599634
13.271312,3.3114614660816204,0.04893802909088434
13.275404,3.2983011346296496,0.04860052220277113
13.279328,3.277298718777974,0.048343837585116
13.283372,3.2545018691762757,0.04808688953170545
13.28742,3.229013368949541,0.047826157596195115
13.291468,3.2056514771726348,0.047522055308538314
13.295508,3.1815030934206523,0.04719952212736285
13.299504,3.1581412016437462,0.04688651800963888
13.303552,3.129518151192237,0.04666364154592522
13.307596,3.099665709165911,0.04647787765368391
13.311592,3.0720620181648814,0.046344438108837954
13.315644,3.0470392528889527,0.04622026357226109
13.319648,3.0191033871881188,0.04611824979642581
13.323696,2.9873572041873673,0.046041509269798137
13.327756,2.9566189629615622,0.04595196006622379
13.331812,2.926102171535628,0.04583426083629106
13.33592,2.9000714644847525,0.04571527068297544
13.339968,2.8728113658590613,0.04563385712498432
13.344072,2.8463377592084456,0.045566106229207294
13.348176,2.829168496007753,0.04545926119421727
13.352276,2.8098726243572325,0.0453921551119416
13.356376,2.7924819113566706,0.04531168694660198
13.360488,2.780695949406049,0.04520488008093354
13.36454,2.7696964794305043,0.045112488631748715
13.36854,2.7648668026801078,0.04503715692840114
13.372592,2.761831559679735,0.04496275752890921
13.376596,2.7591399090546993,0.044960677396188885
13.380648,2.7553295917547818,0.04498677620590133
13.384632,2.75443237487977,0.04498615805935232
13.388664,2.751519274454864,0.04501400822505972
13.392748,2.74994629050471,0.044983603514000825
13.396776,2.7462466981047284,0.044996436760219784
13.400828,2.7432228727798886,0.04503945489238165
13.404876,2.7430014229800186,0.04506942668037667
13.408976,2.7437879149550963,0.04508495323060788
13.413004,2.7435664651552267,0.045115273004459645
13.417032,2.7433450153553576,0.04514514775355168
13.421068,2.7383053064806235,0.045218702369128255
13.425092,2.7396568406309076,0.04528036975413056
13.42918,2.7361901157063278,0.04538403626211008
13.433256,2.731715449006802,0.045505094229109935
13.437348,2.729035216057299,0.04562686494326648
13.441436,2.7225446658078796,0.0457778668079911
13.445532,2.718069999108353,0.04589892477499095
13.44962,2.7068719146840046,0.04608243142820102
13.453712,2.6916420631598696,0.04632742228299989
13.457808,2.6785388200855627,0.046525686174318306
13.461896,2.663530418361297,0.046745085401408766
13.465988,2.6486327415369666,0.04694788569969241
13.470128,2.633845789612571,0.047140613721080346
13.474216,2.615027070588388,0.04739977585055813
13.478308,2.60214527731395,0.0475753267845144
13.482448,2.5856746165394657,0.04775630151965017
13.486588,2.5692039557649813,0.04793727625478594
13.490672,2.5507174114406035,0.048152704085259686
13.49476,2.536938401291154,0.04833155018809118
13.498848,2.515428031641936,0.048601346464118234
13.502932,2.50064107971754,0.048806881655050885
13.50702,2.48147876831802,0.04899481229809848
13.511108,2.4634351235933813,0.04914996246533416
13.515196,2.451328404618488,0.04921946867609299
13.51934,2.4335062096937197,0.04934601500958682
13.523432,2.4193836071689327,0.04945466563321457
13.527516,2.4051502797442117,0.04957810308610507
13.531596,2.3981939945439867,0.04954814650097713
13.535684,2.394261534668602,0.04946705005437623
13.53972,2.388534641043193,0.04938674928440948
13.54386,2.3887446731675306,0.04922177640991612
13.547944,2.3887332554919976,0.04908985615755811
13.551984,2.387935345841388,0.0489389704229238
13.556016,2.392066420165577,0.04871801131246867
13.560044,2.392387177189849,0.04853550349120612
13.564084,2.398312685264061,0.048317402771303905
13.56812,2.406254076888167,0.04806861672599091
13.572164,2.419124452487072,0.04775612046345875
13.576196,2.424152743686272,0.04753983937968721
13.580284,2.434110018860271,0.047245899783100544
13.584372,2.441264918509299,0.046971762617352766
13.588456,2.4475226012833162,0.04669591497191502
13.592548,2.4526616173824523,0.04645371084306213
13.596636,2.453658141481866,0.04629953292074843
13.60072,2.459583649556079,0.046071387868462085
13.604808,2.461920290130244,0.045843866154934056
13.608896,2.463470438729332,0.04560015264697715
13.612984,2.464577687728681,0.04543089359951314
13.617064,2.463779778078071,0.04527793148893253
13.621044,2.460068768002556,0.04515623659996993
13.625072,2.448626398427272,0.0451156808628322
13.6291,2.4365082617768463,0.04503982197507253
13.633184,2.4269710508515208,0.04498272032253602
13.637212,2.415417956376302,0.04495835240656436
13.641244,2.3998330948012963,0.0450043280630671
13.645276,2.3804379159263735,0.04508423407582188
13.649308,2.355105811301706,0.045254492388055005
13.65334,2.3257419395772505,0.04548971698360651
13.657432,2.303433660277423,0.04560536216355266
13.661464,2.2840384814025003,0.04568274358935688
13.6655,2.2646433025275776,0.04576064371943832
13.66954,2.246821107602809,0.04587638820528592
13.673636,2.2283231456028982,0.04595615997978394
13.677732,2.21206251695275,0.04596372333289598
13.681828,2.1947939465276556,0.04598764885973681
13.685924,2.1774146512026262,0.046031947460773506
13.689952,2.1561143136777456,0.046133542687521865
13.693984,2.128201283327977,0.04629277395556605
13.698024,2.0995017610031317,0.046431207991952064
13.702048,2.074612555978203,0.04653309532212219
13.70602,2.0554388269031505,0.04658174065033022
13.71006,2.036154372928163,0.04664890642474665
13.714092,2.018099310527991,0.04665470591551665
13.71812,1.9981390894778612,0.04668114640563376
13.722148,1.9829971275025953,0.04665430580320882
13.726184,1.968863107302276,0.046608157079649284
