Time,Force,Position
17.345100000000002,1.7851522456610986,0.044209341802778586
17.349192000000002,1.772026167235726,0.04412530883964723
17.35328,1.756097713285383,0.044060144551100126
17.357372,1.741410068585389,0.044115705863531675
17.36146,1.7276196407604072,0.04417279362511913
17.365552,1.7137184880354903,0.04425230088488623
17.369644,1.6958962931107218,0.044397294761195874
17.373732,1.6839002990357634,0.04444984659744777
17.377756,1.6701098712107814,0.04449958284673147
17.38184,1.6503825176360543,0.04467428566474319
17.385924,1.6317738307362086,0.044796016010206906
17.390008,1.6149595775863865,0.044920386502313774
17.394088,1.5979238746366946,0.04509672060320639
17.398172,1.58469848898692,0.04522764119489207
17.402248,1.5723703202121573,0.04536602108798394
17.406288,1.5639631936372462,0.045429884772701296
17.410324,1.5518564746623527,0.045521636261087454
17.414348,1.539417580987655,0.045695953050121856
17.418376000000002,1.5316862214878857,0.045824607078574844
17.422456,1.523622687288312,0.04603781798031038
17.426532,1.5175750366386325,0.04619753373080358
17.430568,1.511084486389213,0.046461075557162314
17.434604,1.506277644989882,0.04675199692184504
17.438636,1.4990006027653855,0.046997677891660435
17.442668,1.4934072693909775,0.047269671047434396
17.4467,1.4914028035166171,0.04753487937701521
17.450784,1.4900741047173984,0.04785958540351075
17.454876,1.4846029139184582,0.04831928352065898
17.458964,1.4809261568695415,0.04877607245595057
17.462996,1.485877976195406,0.04909117447144911
17.467028,1.4920706047716197,0.04953872751205752
17.47106,1.4972552915728865,0.050012093840912666
17.475096,1.504234412124177,0.050479817426657636
17.47918,1.5032607233758288,0.05117723638254453
17.483264000000002,1.5041921932774394,0.051839928724922726
17.487292,1.4991867374293044,0.05266783757197127
17.491272000000002,1.5026991330560153,0.053344089863742894
17.495312000000002,1.5068872957578687,0.05407575958436086
17.499392,1.5118619504347985,0.054809356217884776
17.503468,1.5169473300116634,0.055513174502116965
17.507512000000002,1.5196846513388302,0.056367438304178376
17.51154,1.5214140308910504,0.057252078390143075
17.515576,1.5210168019934427,0.05823847406523922
17.519604,1.5251056574708934,0.0591813667576441
17.523696,1.5299810049234215,0.0601280122731483
17.527792,1.5336269608011333,0.06113747740415606
17.531884,1.5407510592789575,0.06212840312085826
17.535980000000002,1.5510211256570892,0.06317445431224383
17.539968000000002,1.5595081759607299,0.06443491120091409
17.544056,1.5709197443648089,0.06574583100583063
17.548148,1.5805482966943971,0.06725828759865472
17.552236,1.5934449594997608,0.06894760621353153
17.556324,1.607926023930811,0.07080239254485877
17.560412,1.638114092512335,0.0724391169326268
17.564452,1.6737082976949957,0.07425194668421825
17.568492,1.721432057203615,0.0760239560473727
17.572588,1.7706409111135193,0.07805007929056337
17.576684,1.8258095261242344,0.08008684856700087
17.580776,1.8829061351359737,0.08227197912960013
17.584876,1.9470925895989386,0.08453467804969506
17.588908,2.0193768312880755,0.08681243056728075
17.592944,2.097742976653491,0.08916489984269016
17.596984,2.1897009353950843,0.09137626733197719
17.601068,2.2856141893631285,0.09373313996008897
17.605156,2.384696246582546,0.096221209190512
17.60924,2.48616061507826,0.09882492261550933
17.613272000000002,2.5922446282000338,0.10143010569827696
17.6173,2.701264577097779,0.10403302497643917
17.621388,2.8199438794963165,0.10643489568534746
17.625468,2.9389781919457243,0.10888511200655608
17.629552,3.0694548739704164,0.11098981723307146
17.633636,3.202623206620144,0.11289655276213562
17.637672000000002,3.339269681869984,0.11462127880988614
17.64176,3.4684062474199244,0.11643858818714542
17.645844,3.5919266442443916,0.1181633162593558
17.649936,3.7081471634932965,0.11985385402318802
17.654012,3.819980905591544,0.12142725339033858
17.658096,3.931016738039183,0.1228459029180253
17.66218,4.039460227086187,0.12414062763474702
17.666208,4.143284071507133,0.12529768356180784
17.67028,4.244504154851911,0.12627284439299158
17.674364,4.3434526518203285,0.12703929196517233
17.678448,4.427236351462413,0.12788360227866977
17.682532000000002,4.506278263902971,0.1285641109840891
17.686616,4.581143431317209,0.1290990393378966
17.690704,4.654634229230096,0.12943859095982607
17.694732000000002,4.723948282116664,0.12966720295873865
17.69882,4.787966923302029,0.12981274489380593
17.702912,4.844784994136235,0.1299397841807581
17.706996,4.894291769719345,0.13005012614178682
17.711032,4.935257858476544,0.13020938970024473
17.71506,4.972058619882955,0.13034423626460923
17.719152,4.999875794863715,0.1305558393203361
17.723236,5.025654250943516,0.13068011055837245
17.72732,5.053437172897677,0.13068511174097394
17.731408000000002,5.07717691007652,0.1307199883667177
17.735448,5.098102854054859,0.1307421182518157
17.739544000000002,5.112293962632843,0.13084563074789385
17.743632,5.124568494885335,0.13092327881791108
17.747728000000002,5.135602217887478,0.1309813576954592
17.751824,5.14147408943942,0.1311099191681339
17.755912000000002,5.1447650352662615,0.13127268800546868
17.760004000000002,5.152874240167967,0.13133150818185862
17.7641,5.159975503294725,0.1314151693580889
17.768192,5.167076766421483,0.13149823870536098
17.772284,5.172948637973424,0.13162468699637916
17.776376,5.178488334825561,0.13177949589840288
17.780472,5.186154640127527,0.13187627793117926
17.784568,5.19056425262925,0.13200164196737615
17.788664,5.197100473580803,0.13206904172740025
17.79276,5.201620810982459,0.13218422855567327
17.796856000000002,5.203338772859147,0.13235208497141304
17.800892,5.21077221068571,0.1324038733969434
17.804984,5.21877069068748,0.13246997218490766
17.809072,5.223180303189203,0.1325939154168662
17.813164,5.2336375663406045,0.13257422657809634
17.817256,5.246897205016978,0.1325021399833431
17.821344,5.264864377868281,0.13233931074473845
17.825432,5.283728767594594,0.1321629423085011
17.829464,5.302482432420974,0.1319980138695528
17.833504,5.320338880372341,0.13184435621945995
17.837484,5.334385011023791,0.13176559755482894
17.841516000000002,5.3446208243753235,0.13176387970446618
17.845568,5.353394378676637,0.13176256661330235
17.849612,5.359354139777449,0.1317518792056527
17.853656,5.360140631752526,0.1317468550944952
17.857652,5.355421679902065,0.13177709291625997
17.861688,5.3494619188012535,0.13178747912635105
17.865776,5.344731549275259,0.13175435626768076
17.86982,5.33864964559898,0.1317113555786504
17.873908,5.3335642660221145,0.13158148809240014
17.877944,5.331048394494817,0.13135546901482656
17.881976,5.324378613292266,0.13117247858200567
17.886012,5.315570805964354,0.13098424210280862
17.889996,5.307881665311323,0.13076213488339972
17.894028,5.29671438205818,0.13058688592432108
17.898064,5.28307689797987,0.13043419833302125
17.9021,5.266293446001253,0.1302978740946797
17.906144,5.2470397931974695,0.13018371567174375
17.910140000000002,5.226323881343467,0.1300677727446056
17.914188,5.207169535764086,0.12988077973012857
17.918236,5.1932763488593086,0.12955775583673507
17.922344,5.179715336654335,0.1292051493029325
17.926368,5.16435989069934,0.12887899512622236
17.930356,5.1542770210944795,0.1284773929590048
17.934392,5.147561569189796,0.12803553593112468
17.938480000000002,5.142419101235267,0.1275810072746027
17.942564,5.138063125255814,0.1271228259394942
17.946644,5.13707456697654,0.12663017082826658
17.950732000000002,5.13597528379733,0.12614611636225315
17.95482,5.133646609043304,0.1257045284909505
17.958908,5.132104426264357,0.12526172449120412
17.962996,5.1335860688102475,0.12475037241712708
17.967088,5.138878028656055,0.12416873903862162
17.971176,5.14539938007668,0.12354848554010127
17.975272,5.1502370226472145,0.12294382656780359
17.979364,5.155296115017619,0.12231919184941635
17.98346,5.16024448248809,0.12170321343347444
17.987556,5.170011109033425,0.12099841486415813
17.991652000000002,5.178769793803813,0.12031305993654333
17.995752,5.189998679399366,0.11961289362571803
17.999848,5.1964093059200565,0.11900399126532232
18.00394,5.210551291940515,0.11825886482910378
18.00804,5.23018730411098,0.11743427612584029
18.01214,5.243542798156362,0.11669468311633688
18.016232,5.26070860950166,0.11589596531550919
18.020328,5.279779579496918,0.11506338426175171
18.02442,5.295937449067269,0.11428549430727704
18.028516,5.30671201738755,0.11357873715219366
18.032616,5.319170294557919,0.1128599503075694
18.036712,5.332525788603301,0.11213048650216277
18.040804,5.340276531598744,0.1114867673911902
18.0449,5.3470193328192375,0.11086700586002946
18.049,5.351635525589904,0.11030042253568101
18.053092,5.353338617935664,0.10978491174092012
18.057188,5.3595277946564845,0.10921823970167163
18.061288,5.366503463352381,0.10865050723406429
18.065384,5.372471190273331,0.10810028508450338
18.06948,5.371826224369394,0.1076509437912008
18.073572,5.376110242440255,0.10711558183516871
18.077668,5.375908176136058,0.10663146998520694
18.081764,5.377832718281688,0.10609721854932123
18.08586,5.370120742277592,0.10571997775039971
18.089956,5.35803340679837,0.10538323878711853
18.094056,5.349756388619067,0.10498673249756736
18.098152,5.337669053139845,0.10464719102261563
18.102248,5.327819051010386,0.10425293918462515
18.10634,5.318190498680798,0.10383850751124235
18.110436,5.313601655225943,0.10333201292773356
18.114536,5.310574378045709,0.10276646202454064
18.118632,5.306760608890399,0.10220071979282387
18.122724,5.306081389959863,0.1015687191819351
18.12682,5.304726403954185,0.10092816453876917
18.130908,5.302019883798225,0.10026880904591873
18.134996,5.3032344058421135,0.09954938620796885
18.139092,5.298279134660856,0.09888122197980663
18.143192,5.290632212854564,0.09823575761081098
18.147228,5.285333349297968,0.09752776517829599
18.151316,5.284963469716171,0.09673987767369252
18.155344,5.278091622209421,0.09602740304670483
18.159432,5.275362266702393,0.09523690048271717
18.163524,5.271514244520484,0.09446907343226248
18.16756,5.271022222363219,0.09361852114126765
18.171664,5.268846491355866,0.09276800254906341
18.175768,5.269583860773418,0.09188246258178778
18.179872,5.270764129790709,0.09096062351496191
18.183968,5.268134081508084,0.09008882161956165
18.188028,5.269535800325244,0.0891546808455967
18.192132,5.264214101417584,0.08830312783761847
18.196232,5.253066201660112,0.08752681508180572
18.200228,5.244044910352469,0.08671060047578732
18.204312,5.235810111019903,0.08589534420737464
18.20834,5.22936974543736,0.0850675605039405
18.212388,5.226628972254799,0.0842069568753341
18.216432,5.219402114697179,0.08337714243407428
18.220528,5.215985574439477,0.08250153849338758
18.224624,5.217830192856377,0.08153723169904104
18.22872,5.221469245023302,0.08056825180238703
18.232816,5.22410035541528,0.07961762065220665
18.236844,5.229644566232162,0.07862821019339397
18.240924,5.234070110374163,0.07766653916284644
18.244924,5.241740929640875,0.0766494161972541
18.249028,5.252103399532621,0.07562432962303132
18.253076,5.26896783734932,0.07455271791969031
18.257108,5.28112474099109,0.07352763937779688
18.261152,5.2960840201578305,0.0724894408940088
18.265196,5.3119405161995825,0.07144595445803358
18.269176,5.324773186916495,0.07044634376721727
18.273208,5.344218550458294,0.06939366261112848
18.277248,5.366466289525064,0.06831640272978001
18.281288,5.3828878277420245,0.06729202614882744
18.285328,5.399530815758853,0.06625693044513864
18.28936,5.410569052725742,0.06525591061546242
18.293396,5.418583464367791,0.06429474069358787
18.297428,5.429068076835006,0.06333873416208533
18.301464,5.438323297727402,0.062412237852373605
18.305492,5.44130941817025,0.06156778169635252
18.30952,5.440485221313181,0.060752338006354774
18.313448,5.439771749356047,0.059930625437753834
18.317488,5.441639203124013,0.05911321472710146
18.321532,5.442387990217098,0.058314377738584965
18.325576,5.442693877710442,0.05755174955974902
18.329624,5.437062839454042,0.056838266954495544
18.333676,5.4245976585728855,0.05617518774992847
18.337776,5.413705461641882,0.055522129997556596
18.341876,5.396433439361394,0.05494633519530753
18.345976,5.378939967281037,0.05438332719650024
18.350076,5.359209161850917,0.053850030959355644
18.354176,5.334770822245867,0.05333571483432715
18.35828,5.310111032840947,0.052833471342113775
18.36238,5.2890401109360745,0.05232072439315609
18.366484,5.264502464106622,0.05186245784852863
18.370584,5.243221510077413,0.05141879840604484
18.374696,5.217011572073406,0.051005730397742685
18.378792,5.185983374994534,0.05061605935003735
18.382892,5.150026193940864,0.05025697325971694
18.386936,5.116871388412164,0.04988197137040558
18.391036,5.0804713077587556,0.04954407677543853
18.395136,5.0381343013556,0.049244505445721336
18.39924,4.989073877227623,0.04897659332267998
18.403344,4.932171368699943,0.04875816745128281
18.407404,4.865853791822404,0.048572030959714
18.411448,4.797409606495037,0.048409605224484516
18.415484,4.727957479392724,0.04825037921749024
18.419516,4.650995442590511,0.048115478335135485
18.423556,4.57346836361309,0.04794834737652283
18.427648,4.491233750460741,0.04779292747806116
18.431692,4.40529954490841,0.04764354934087077
18.43578,4.318025222881328,0.04752497129269958
18.439872,4.224027483129423,0.04744260244858222
18.443956,4.12532220920259,0.04737096681070146
18.447936,4.022020126000762,0.04731186403429698
18.45198,3.9122160748739825,0.047275304978360314
18.45602,3.803309240622215,0.0472380555325127
18.46006,3.6933944645955004,0.04720894036615305
18.464056,3.586392788993691,0.047146865021983085
18.468096,3.472667695667059,0.047126876761139136
18.472136,3.3610692107902556,0.04705415074032988
18.47618,3.249360001013517,0.0469874755168722
18.480224,3.1356349076868852,0.0469457738584165
18.484272,3.026728073435117,0.046863193879128656
18.488316,2.9221965986584735,0.046798279672098014
18.492368,2.8206889492066693,0.04667861592731939
18.49642,2.719070574854931,0.046564455045352574
18.500464,2.6182386924782697,0.04646645553318097
18.504472,2.5123671012268747,0.04646187985450871
18.508536,2.407171277050621,0.04649724872787329
18.512588,2.3055643203744154,0.04653396806993612
18.516596,2.2020522050482514,0.046605310008535544
18.52064,2.102239682122069,0.04666784266626131
18.524688,2.0029922013710943,0.046823546257322074
18.528728,1.9111439054200838,0.04692857952501415
18.532772,1.8268055191689725,0.046944472374546686
18.536816,1.7444830164677545,0.04688352967447429
18.540864,1.664741439491637,0.04686036637319126
18.544912,1.5836597460407684,0.04695709358371742
18.548956,1.509977237389864,0.04699348396518829
18.552996,1.4328280038143801,0.047289602459303595
18.557036,1.3582596959639968,0.044995932031837896
18.561092,1.2872802556136602,0.042686506034347024
18.565136,1.2216841165133951,0.04039863636762315
18.569188,1.160906236487994,0.03809244134488557
18.573248,1.0997961817627881,0.0358301352046295
18.577244,1.0450773700625997,0.03357230588203815
18.581344,1.0013466106624231,0.03378508472450927
18.585384,0.9708412369120212,0.03377981743703838
18.589432,0.9439247306616664,0.033792128093514257
18.59346,0.9161110075362999,0.03380650608381761
18.597492,0.8928940936859274,0.033787392687117744
18.60142,0.8751712059855606,0.033714355878330216
18.605368,0.8622665773600577,0.03351281577826094
18.609364,0.8465595732095843,0.031058001492304657
18.613392,0.8297339023842294,0.028677839516027204
18.617424,0.8153784323840403,0.02637416722637962
18.621456,0.8020309041587976,0.024032268935291035
18.625492,0.7926044181334071,0.021602513724871694
18.629528,0.7829564823081467,0.019217255004335982
18.63356,0.7840637313074954,0.018717481977078065
18.637596,0.7869654140568678,0.02085433599109107
18.641628,0.7927801972311452,0.02294135066884701
18.645664,0.7947846631055059,0.02294135066884701
18.649696,0.7899549863551093,0.022941350668847015
18.65374,0.7870304682546713,0.022941350668847015
18.657764,0.7813035746292629,0.022941350668847015
18.661792,0.7673910042288132,0.02045388175819537
18.665824,0.7496681165284466,0.018113161010732983
18.66996,0.7339611123779732,0.015726636449259875
18.674096,0.7226294677026243,0.013337247272892566
18.678232,0.7123057648022219,0.010947061701608252
18.682304,0.6982824695018374,0.008607464349271104
18.686332,0.680227407101666,0.006316638407051837
18.690464,0.6638560535515833,0.006316638407051837
18.694604,0.6475954249014355,0.006316638407051837
18.698736,0.6314455211512228,0.006316638407051837
18.70282,0.6179872680260455,0.006316638407051838
18.7069,0.6034103482259866,0.006316638407051838
18.710932,0.590173544900679,0.006316638407051838
18.715012,0.5662922816506972,0.004223868691768945
18.719152,0.543640409975532,0.002087014677755943
18.723288,0.5199805965254198,0.0
18.727372,0.49441562442534936,0.0
18.731456,0.4755740700501011,0.0
18.735536,0.45673251567485285,0.0
18.73962,0.4358750777497112,0.0
18.7437,0.41670134867465825,0.0
18.747784,0.39472524407463505,0.0
18.751868,0.36994676394964154,0.0
18.755952,0.3444925167495058,0.0
18.760036,0.31791960287448856,0.0
18.76412,0.2903387472245246,0.0
18.768208,0.26768687554935927,0.0
18.772296,0.24469563319671478,0.0
18.776384,0.22283025349662638,0.0
18.780468,0.20051477821912397,0.0
18.78456,0.17730208606660977,0.0
18.788648,0.15509733568904222,0.0
18.792676,0.13166319373665825,0.0
18.796672,0.1139445277341498,0.0
18.800708,0.09600441193177162,0.0
18.804752,0.07896151300440526,0.0
18.808736,0.06572893137695593,0.0
18.812832,0.051488407974559926,0.0
18.816884,0.038145101447175735,0.0
18.820872,0.02771489534469676,0.0
18.824872,0.0191898478921763,0.0
18.8288,0.01335645106469131,0.0
18.832732,0.009317487987229967,0.0
18.836728,0.005167800009833754,0.0
18.840772,0.0020260538073842336,0.0
18.844772,0.0016866831299050537,0.0
18.84882,0.00033937067747917966,0.0
18.85282,0.00033937067747917966,0.0
18.856812,0.0,0.0
18.86086,0.0,0.0
18.8649,0.0,0.0
18.868884,0.0,0.0
18.87292,0.0,0.0
18.876964,0.0,0.0
18.880988,0.0,0.0
18.88498,0.0,0.0
18.889016,0.0,0.0
18.893044,0.0,0.0
18.897072,0.0,0.0
18.901104,0.0,0.0
18.905136,0.0,0.0
18.909168,0.0,0.0
18.9132,0.0,0.0
18.917236,0.0,0.0
18.921268,0.0,0.0
18.925308,0.0,0.0
18.92934,0.0,0.0
18.933428,0.0,0.0
18.937464,0.0,0.0
18.9415,0.0,0.0
18.945536,0.0,0.0
18.949564,0.0,0.0
18.953596,0.0,0.0
18.95768,0.0,0.0
18.961764,0.0,0.0
18.9658,0.0,0.0
