Time,Force,Position
22.592224,0.6104349693645728,0.0
22.596356,0.6083083609147445,0.0
22.60044,0.6004662765150406,0.0
22.60452,0.5899325414903014,0.0
22.608604,0.5769286056403964,0.0
22.612692,0.5630274529154795,0.0
22.61678,0.5519286757155331,0.0
22.620868,0.5418378402905332,0.0
22.624956,0.5317470048655334,0.0
22.629044,0.5235613280904922,0.0
22.633072,0.5074228420158121,0.0
22.637152,0.4958811652161262,0.0
22.641236,0.48445021331637506,0.0
22.645316,0.4773832032162154,0.0
22.649396,0.46830030956616225,0.0
22.653476,0.464711442066115,0.0
22.657504,0.46313845811596105,0.0
22.661588,0.4643678496907775,0.0
22.665624,0.46570796616552873,0.0
22.6697,0.4672695324401498,0.0
22.673792,0.4755545164395931,0.0
22.67788,0.48664187596400676,0.0
22.68192,0.4960455266383316,0.0
22.68602,0.5015281351128046,0.0
22.690108,0.5086944524373663,0.0
22.694212,0.5194496372619753,0.0
22.698308,0.5272917216616791,0.0
22.702408,0.5332286474114245,0.0
22.706504,0.5410707318111283,0.0
22.710536,0.5461104406858618,0.0
22.714572,0.5529445833106188,0.0
22.718608,0.5570870753103404,0.0
22.722704,0.5639212179350975,0.0
22.726704,0.5658263765850561,0.0
22.730796,0.5669450432599377,0.0
22.734892,0.5681744348347542,0.0
22.738888,0.5701903183846475,0.0
22.74294,0.5710875352596594,0.0
22.746988,0.5747871276596418,0.0
22.751088,0.5752414449349139,0.0
22.755112,0.572782661785281,0.0
22.759136,0.5656163444607193,0.0
22.763172,0.5669678786110035,0.0
22.7672,0.5730269469362166,0.0
22.771232,0.5808804490114533,0.0
22.775316,0.5861530253615892,0.0
22.779396,0.5934414852616187,0.0
22.783476,0.6024136540117369,0.0
22.78756,0.6121723147369321,0.0
22.791596,0.6227174674372041,0.0
22.795624,0.637405112137198,0.0041090532810257735
22.799712,0.6517605821373871,0.00832678190824767
22.803808,0.6653295601624993,0.01245170326631511
22.807904,0.6797957550626236,0.01666943189353701
22.812,0.6997559761127534,0.020688538732663322
22.81604,0.7178110385129247,0.02470764557178964
22.820076,0.7360875507129657,0.028597489063433852
22.824164,0.7497672536380128,0.03263391714988231
22.828252,0.7596366392631428,0.0367971629967231
22.83234,0.7755536755379531,0.04066839680033185
22.836376,0.7925893784876448,0.044462417176612826
22.84042,0.8117516898871648,0.04816152491180489
22.844452,0.823071916886981,0.05209522466245309
22.848544,0.8333842021118506,0.056080157774116936
22.852632,0.8429099953616433,0.05998199463514913
22.856716,0.8513171219365544,0.06396692774681298
22.860752,0.8568111480865602,0.06807598102783877
22.864784,0.8626373489363707,0.07204288293026598
22.868876,0.8667798409360923,0.0759576567136772
22.872964,0.8710330578357489,0.07987243049708842
22.877048,0.8740568831605889,0.07961534495105022
22.88114,0.8783101000602453,0.07917146484196616
22.885228,0.8844684756098604,0.07865052098353946
22.889364,0.8926427347093687,0.07796988244307444
22.893392,0.8990225600588535,0.07740412526433887
22.897476,0.9055131103082731,0.07679618187067512
22.901552,0.9126794276328347,0.07628192996188027
22.905636,0.9226481204823669,0.07562109345828114
22.909716,0.9375457973066976,0.07466936214525298
22.913796,0.9447121146312594,0.07414995149264143
22.917832,0.9481788395558389,0.07376163078416866
22.921916,0.9523213315555606,0.07344962895366162
22.926004,0.9617249822298856,0.07270447592478156
22.930092,0.9732552413540386,0.07180287186890717
22.93418,0.9828803418282333,0.07099645945789157
22.938268,0.9937348338772443,0.07002837120271738
22.942296,1.007280976551291,0.06896394209816344
22.946324,1.0217243361003492,0.06794544091649989
22.950408,1.0359462458495379,0.06701621763706143
22.954492,1.0501681555987263,0.06608699435762296
22.958568,1.0608011978478677,0.06524110110988841
22.962608,1.0734501236469023,0.06433376461718247
22.966636,1.08228873214602,0.06360431856805973
22.970676,1.0911273406451376,0.06289759907367896
22.974772,1.0962663567442732,0.062289735422162554
22.978856,1.1024133146183552,0.06164336287400724
22.982884,1.105757896967467,0.06107608336130539
22.98692,1.1103318708913956,0.0603928217204528
22.99096,1.1127792363654956,0.059868473010288664
22.995052,1.118139702264501,0.05920897980128822
22.999144,1.1271997605634883,0.05845498116934953
23.003244,1.1373784855373572,0.057642350854315724
23.007276,1.1443119353865163,0.057066242991992554
23.011312,1.1503481683606636,0.05652336461498771
23.015392,1.1584002848847044,0.05589899358932271
23.01948,1.1682468351587685,0.055285555806783425
23.023572,1.1784255601326377,0.05458062054994648
23.027552,1.1866991264565478,0.053940551353600215
23.031636,1.1970993012302866,0.05320380705557072
23.03572,1.2067129840289486,0.05243502056809906
23.039804,1.217223883702622,0.05164383918604636
23.043888,1.2209006407515386,0.05104995848962927
23.047916,1.2235694560255082,0.050479676315784594
23.051956,1.2234358957745077,0.0499520265213178
23.055984,1.2252074941734656,0.049374175728368754
23.060016,1.2248524841225954,0.04891130551097191
23.0641,1.2255054158466718,0.04840491412073484
23.068128,1.22381028932105,0.04808649861257343
23.072164,1.2211072210204814,0.04780987244684312
23.076192,1.2212065282448836,0.047490836279688683
23.080224,1.2174955181693685,0.047250596207672316
23.08426,1.2116578996440253,0.047124952285044576
23.088288,1.209852048218469,0.04685045348798447
23.092328,1.2060303132430188,0.04664769341611392
23.096364,1.1991847529427289,0.04655087985499825
23.1004,1.1881967006427174,0.04663829568565541
23.104436,1.1742955479178008,0.046794211824114904
23.108524,1.1592757285180024,0.0470250563185863
23.112556,1.1413428086932986,0.04731878582282127
23.11664,1.1261015394936305,0.04759762686441457
23.120668,1.112765428943921,0.047836443916421674
23.124704,1.1052555192440219,0.047938388610502945
23.128788,1.0996507681940808,0.04800871535692572
23.132824,1.0986428264191341,0.048043685165930446
23.136852,1.0974134348443174,0.048149649179185156
23.14088,1.0981999268193945,0.048185668561659574
23.14496,1.0961840432695011,0.04825798774498507
23.14904,1.0961840432695014,0.04825798774498507
23.153076,1.0942788846195428,0.04829785207853815
23.157104,1.0913657841946376,0.04837338997071931
23.161188,1.0959625934696315,0.048334639368628605
23.16528,1.09786775211959,0.0482954550565513
23.169308,1.0975355774197855,0.04840192262916574
23.173336,1.0989978364700044,0.048507255162604165
23.17742,1.104048963020271,0.048607552512704266
23.181512,1.113021131770389,0.048587783032448324
23.1856,1.1267008346954361,0.04849490180260672
23.189692,1.1404912625204182,0.0483591328576683
23.19378,1.1560761240954238,0.04821932097574284
23.197912,1.1687478852455244,0.04815924640247851
23.201948,1.1804117046206781,0.04814106673010113
23.206032,1.188830248871122,0.04830161284660506
23.21012,1.1981460099965777,0.04845960720773321
23.214216,1.2036514538221166,0.048690080920730426
23.218308,1.2063545221226846,0.048963715050177804
23.22234,1.2078281988484365,0.049342985229986425
23.226428,1.214906626624129,0.04963673984172026
23.230516,1.2235580383499753,0.04998214425536766
23.234608,1.2349011007008572,0.050309925835022584
23.2387,1.2498330305517864,0.05061209649294416
23.242788,1.2568121511030768,0.05116336547586446
23.24688,1.2690638480045031,0.051716640051284735
23.250968,1.2809833702061255,0.052348969059178393
23.255052,1.288317500808286,0.05330288613349113
23.259136,1.2952087318107075,0.05435863396111082
23.263224,1.3033407720634782,0.0555130683455215
23.26726,1.3073417379920607,0.05708511512261355
23.271348,1.3127056557464594,0.05899981134429454
23.27544,1.3184245835517288,0.06125736412549841
23.27952,1.3262929551578921,0.06384498121573129
23.283612,1.3376623047152332,0.06677127867174726
23.28764,1.3545485157736459,0.06989965139496698
23.291664,1.3767301385332604,0.07319816751824933
23.295748,1.4079067653940591,0.07653692868002965
23.299828,1.4513350891562842,0.07989274599045716
23.30386,1.503880559595161,0.0833467106341216
23.307892,1.5580332670107901,0.08714575434028221
23.31192,1.6183786030026328,0.0909203719524068
23.315948,1.687386768395855,0.09466914003643083
23.320032,1.7549783454409895,0.0987845527555544
23.324064,1.8385212117875327,0.10265962571220996
23.328096,1.9278138071105502,0.10656306190846421
23.332136,2.023753348285054,0.11046902127505
23.33622,2.13664070286038,0.11391822788263473
23.340304,2.2587445113367592,0.11719196296785599
23.344336,2.3845707475641866,0.12042647920058926
23.348372,2.519602020017135,0.123306341283637
23.352312,2.664170503395409,0.12577640199962123
23.356316,2.8156952719739072,0.1278790565733434
23.360316,2.9745085004524356,0.12957340457426675
23.364412,3.1358912369805316,0.13090389192332874
23.368412,3.297484005632964,0.13191990242073812
23.372392,3.4553657642098816,0.13280848370716017
23.376424,3.606623412286379,0.13369742461295267
23.380452,3.751577706886728,0.1344772689107726
23.384484,3.890217230335396,0.13505159189648488
23.388572,4.028822500757466,0.13526278876327316
23.392604,4.156981925703665,0.13554232864593427
23.396636,4.27636779634855,0.13580326671953627
23.400688,4.394810779416291,0.13566387038148883
23.404772,4.499650531432323,0.13560721376174548
23.408856,4.596048903846843,0.1355031658015628
23.412892,4.685235288234671,0.1352927501801645
23.416936,4.759256875296168,0.13526028053831915
23.421032,4.821702532531379,0.13530605334442997
23.425132,4.876382577240223,0.13532209510084672
23.429228,4.926775152022812,0.13526970551786904
23.433324,4.96604611425439,0.13531962567885827
23.437416,4.99430618883489,0.13545311970851415
23.441452,5.014247026389348,0.13562185513732888
23.445484,5.027895928143189,0.1358361682813715
23.449572,5.0378338198215165,0.13605720951575645
23.453664,5.0471952516491045,0.13619576433925662
23.457752,5.0536207477007205,0.13626996554477408
23.46184,5.056900275852028,0.13636728889156416
23.46592,5.058385370253312,0.13649603413442096
23.470008,5.056170872254616,0.13669619541129777
23.4741,5.060668374305208,0.13668279211770934
23.478188,5.06370361730558,0.13667035776180186
23.482276,5.06730390248116,0.13667296240147025
23.486364,5.073595838281775,0.13663015832642458
23.490452,5.083919541182178,0.1364895416267416
23.494536,5.094132519182645,0.1363580093018257
23.498624,5.10793436468316,0.13616571507378228
23.502716,5.126554469258539,0.13587133330398746
23.5068,5.1460717907089295,0.13556001298715994
23.510888,5.161778794859403,0.13533181731498276
23.514964,5.180398899434782,0.13503993947346496
23.519044,5.205742421734983,0.13460782750664055
23.523116,5.228959335585355,0.13423114921455728
23.527196,5.254524307685425,0.13377974910869347
23.531332,5.283445279810141,0.13323716014555698
23.535412,5.311469035059845,0.13271524206664498
23.539492,5.343868149784671,0.13213495249157292
23.543576,5.377718105884185,0.13149725042610821
23.547652,5.409208586058467,0.13087261265169767
23.551724,5.439458256982401,0.1302298501037773
23.555804,5.461079351531554,0.12976413791871033
23.559888,5.487629430055505,0.12919804721722652
23.563976,5.508906932229321,0.12870590384815062
23.568064,5.528611450452983,0.12822613240716435
23.572152,5.544727101176597,0.1278066270915518
23.57624,5.560831334224679,0.12732744991174474
23.580324,5.576481249997489,0.12682925327548972
23.58442,5.58315899702018,0.12646134090834277
23.588508,5.591287585417557,0.1260361769726075
23.592592,5.59806463966465,0.1255994448381445
23.596676,5.602482217986512,0.12517601056554656
23.600756,5.604097420783403,0.12480448654782364
23.604836,5.610973782254898,0.12430795727860491
23.608916,5.615158493101357,0.12385115568911277
23.612996,5.61082535247297,0.12354199276451172
23.61708,5.604132735919353,0.12324276441021888
23.621164,5.59519136834044,0.12294533468443046
23.625248,5.58524205898658,0.12266841631781393
23.629328,5.577419358082548,0.12233996796573923
23.633404,5.5713910909285405,0.12198745022180925
23.637484,5.569616040674189,0.12153221424910265
23.641564,5.563244181144844,0.12114685956483516
23.645648,5.561801305590296,0.12066751900496887
23.649732,5.5587854460855946,0.12019286136096818
23.653824,5.552291443980781,0.119753612283527
23.657876,5.549275584476081,0.11927830354905533
23.661948,5.544686741021225,0.11880855576334184
23.666036,5.546710590391259,0.1182292397042584
23.670076,5.547837222886279,0.11766333760128102
23.67418,5.552663447781281,0.11704498469554633
23.678228,5.559616281126114,0.1163802721113127
23.682264,5.5677985060457615,0.11568411198341359
23.686364,5.5732890803403725,0.11502598271353871
23.690464,5.579787596409932,0.11434917825108538
23.694508,5.593009530204314,0.11356239448174271
23.698604,5.607017955973772,0.11277168064264806
23.702696,5.620129164868218,0.1119935273184811
23.70668,5.632675331587457,0.11120166361466385
23.710712,5.643205614756803,0.11044713876129017
23.714812,5.652162913975994,0.1096981625335045
23.718904,5.658993604745356,0.10899411966942453
23.72294,5.6621247031147375,0.10833286082706149
23.72692,5.66335064283416,0.10770379537843165
23.730896,5.666481741203541,0.10704575700449379
23.73482,5.67230449019796,0.10635350728457824
23.738852,5.673419705017448,0.1057301094460238
23.742832,5.674424194937,0.10511449993418397
23.746868,5.672737034231518,0.10452762758742913
23.750904,5.667239556226118,0.10399307355485449
23.754944,5.657255993845659,0.10350522615637915
23.758988,5.6453672728152435,0.1030438663822221
23.76302,5.6251821501098505,0.10267994977960504
23.767056,5.602194651879486,0.1023494638883745
23.771088,5.579207153649123,0.10201663293084437
23.775132,5.554093046968931,0.10172564965278047
23.77916,5.531892040713644,0.1013886987545689
23.783188,5.509358859758553,0.10107496167810526
23.78722,5.486382779203722,0.10079268616328278
23.791256,5.4653118572988495,0.10048234049962042
23.795284,5.4451381522689895,0.10016068666770553
23.799368,5.430004156113863,0.09975312114194869
23.803452,5.421593577683558,0.09925111717382541
23.807484,5.410380623728282,0.09878014018699934
23.81152,5.399056944873073,0.09831691814670332
23.815548,5.389749149567756,0.09782018115800366
23.81964,5.380552079162374,0.09731197691647614
23.823728,5.371244283857059,0.09681057222271115
23.827816,5.361825763651806,0.09631461864877303
23.831856,5.3583441691963,0.09572715091956853
23.835952,5.357664950265766,0.09510553995591377
23.839984,5.356764281535361,0.09449987927576316
23.84402,5.364049289579997,0.09381140462035964
23.84806,5.374025948249668,0.093097962238405
23.852156,5.378397855869397,0.09244250549091441
23.856244,5.38220472131392,0.09176902281454509
23.86028,5.3813040525835145,0.09115123407791509
23.864368,5.382640717202872,0.0904849309464662
23.868408,5.383301614747087,0.0898062829358747
23.872448,5.383065295416291,0.08913502739832818
23.876428,5.382496801385691,0.08849057477253275
23.880452,5.378007265155238,0.08790321069249703
23.884496,5.368588744949988,0.08738378474004958
23.888588,5.362980542044653,0.08681829436573825
23.89264,5.357261614239384,0.08626150852983643
23.896668,5.350424019759234,0.08572924610888928
23.900712,5.343364975479213,0.08521076141128192
23.904736,5.337313872974139,0.0846765172761365
23.90882,5.337986188193889,0.08406759210572577
23.912856,5.336421170063873,0.08350756762080296
23.916896,5.337658527458829,0.08292551621481066
23.92088,5.339006609753719,0.08233419860499451
23.924872,5.337663041423573,0.08176185814177733
23.928872,5.338224631743386,0.08117314941766476
23.932924,5.348312015312993,0.08048895644584148
23.936924,5.358399398882598,0.07980521674562484
23.940952,5.372297099752122,0.0790841081025548
23.944976,5.3821630335218575,0.07841649437988404
23.949008,5.3927047343667365,0.07775832639058188
23.95304,5.405262318761508,0.07707683906617699
23.957068,5.417254860981073,0.07637677186264258
23.961092,5.430144620075651,0.07567325528315244
23.965128,5.447066146270013,0.07491843223230753
23.969156,5.4632011804893015,0.07416589716043874
23.973208,5.476755288983487,0.07341727949629842
23.977244,5.490530847277541,0.072655297254919
23.981276,5.508227447771449,0.07185452075548626
23.985312,5.524129614515332,0.07106261211546279
23.989356,5.53431630530934,0.07032840674911565
23.99334,5.541700620578378,0.06961157091713
23.997328,5.544045226972682,0.06895645537733501
24.001268,5.547397775141932,0.0682901431731493
24.005252,5.550971773111055,0.06760753893659587
24.009296,5.549727512005311,0.06696617905549561
24.013324,5.54355426692477,0.06637680715529748
24.01736,5.539175455594251,0.06578149684822546
24.021344,5.53300221051371,0.06519273710411178
24.025384,5.531647224508033,0.0645653417931161
24.029492,5.533537513627066,0.06389275881513276
24.03348,5.534087686271346,0.06325610140374942
24.03752,5.533740642040614,0.06262027138913617
24.04162,5.532274931135001,0.062002085818612655
24.045712,5.527785394904549,0.061414105681394084
24.049808,5.520050583549386,0.06086923081696283
24.053904,5.5150074228192585,0.06031510912678782
24.058,5.51075075406421,0.05976781522587631
24.062088,5.505486143534212,0.05923317808077176
24.066184,5.502015966754239,0.05869334902916722
24.07028,5.498213615274462,0.05817500858018832
24.074376,5.500237464644494,0.0576161487808835
24.078472,5.502704213614266,0.05702387782729952
24.082564,5.499909803909435,0.05648950851585073
24.086568,5.499474870129835,0.05597493305031913
24.09062,5.498929211450299,0.05546330349137483
24.094716,5.499391494545711,0.05494231879651546
24.098812,5.497727169191294,0.05444796486779424
24.102908,5.492596118912297,0.054008091281581766
24.107004,5.481528142883556,0.05361337851366466
24.1111,5.464301791305199,0.05327837424682446
24.115196,5.440462746901955,0.05297146460789217
24.119292,5.419880395298954,0.05268167604585863
24.123384,5.397503609945929,0.05239124241152904
24.12754,5.375802591668046,0.05211317277608592
24.1317,5.3579118906900804,0.051813417165579245
24.135848,5.339799739912245,0.05152823601584264
24.1399,5.316869330059546,0.05126858112742004
24.144004,5.289231386031918,0.05102562671919391
24.148108,5.259577558454395,0.050796982287339754
24.152168,5.228461471826654,0.050542051009594365
24.156212,5.190400517674222,0.05033591071484536
24.160256,5.149770055472222,0.050183876047471314
24.1643,5.114290027044889,0.04997808706841189
24.168336,5.071300088917659,0.0497975360334957
24.172364,5.028310150790428,0.04961392761572519
24.176348,4.980169778888528,0.04947976875667478
24.180332,4.926203206136818,0.049380614952213575
24.184372,4.874584691634807,0.04923574286405845
24.188368,4.82397411890774,0.049079238600448036
24.192416,4.775268704830634,0.04891070521169132
24.196456,4.734294650253297,0.04869063009296333
24.200516,4.685810685976059,0.04849768593630968
24.204516,4.637215996798888,0.04830902230832994
24.208548,4.58592965699668,0.04811750847070901
24.212588,4.526014740819692,0.04797116313939571
24.216532,4.461392290467774,0.04784095085465753
24.22058,4.3986749987658165,0.047695349188997066
24.224628,4.336633474139001,0.04756431231447162
24.228672,4.272576065962291,0.047448751171889764
24.232712,4.206059874635948,0.047388435620175806
24.236756,4.140440900184617,0.0473272170905952
24.240804,4.076051317308103,0.04723574351856079
24.244784,4.009424401081825,0.04717886837920566
24.248828,3.9444811937056365,0.04713300414337281
24.25292,3.8786407694544356,0.04708295208970146
24.2569,3.814926953653064,0.047000861083236666
24.260944,3.7559206720266207,0.046898055190034
24.264928,3.69568499882536,0.04682268195947231
24.269012,3.6345521087490886,0.046742209045631034
24.273048,3.5734192186728166,0.04665702978070501
24.277088,3.5090410534718353,0.04662346719067833
24.28112,3.447354538895889,0.04659352554792297
24.285104,3.3855572994200083,0.046572989630408984
24.28914,3.3243251021193343,0.0465913293122963
24.293164,3.269594872743613,0.04658946762902777
24.297244,3.2165483522179805,0.046602569318252705
24.301324,3.16115377344265,0.0466840244616395
24.305412,3.1056484697673845,0.046782804854403816
24.309492,3.051716150042273,0.04691526181767643
24.313576,2.999688988967121,0.04704402484604248
24.317652,2.9485590447669794,0.04717466145470054
24.321736,2.9001207511918743,0.047300598487624676
24.325824,2.853698341166662,0.047393406292616375
24.329912,2.81007830666642,0.04747483669958877
24.334,2.7690391978912787,0.04756951954760944
24.338088,2.7325968983911317,0.047642975451722185
