Time,Force,Position
13.516827999999997,0.10008630279841668,0.0
13.520868,0.09795969434858841,0.0
13.524907999999996,0.0969517525736417,0.0
13.529039999999997,0.09191204369890824,0.0
13.533075999999994,0.08888821837406814,0.0
13.537115999999996,0.08384850949933466,0.0
13.541155999999994,0.07981674239954788,0.0
13.545184,0.07343070265101531,0.0
13.549267999999998,0.07006848822732285,0.0
13.553348,0.0667062738036304,0.0
13.557375999999998,0.06524921802989643,0.0
13.561419999999998,0.06289494538115065,0.0
13.565451999999992,0.05975418075732793,0.0
13.569536,0.05560547435855849,0.0
13.573679999999996,0.04955160930983055,0.0
13.577819999999996,0.04439496113611442,0.0
13.581908,0.03643593743742796,0.0
13.585995999999994,0.028476913738741498,0.0
13.590027999999997,0.022533773589948427,0.0
13.594171999999991,0.016369183641285607,0.0
13.598267999999996,0.013117694117527999,0.0
13.602363999999994,0.009755479693835523,0.0
13.606392,0.0063932652701430455,0.0
13.610423999999997,0.005046934396343958,0.0
13.614507999999994,0.0017954448725863521,0.0
13.618595999999997,0.00044911399878726444,0.0
13.622727999999997,0.0,0.0
13.626859999999994,0.0,0.0
13.630947999999997,0.0,0.0
13.635027999999998,0.0,0.0
13.639115999999994,0.0,0.0
13.643199999999991,0.0,0.0
13.647287999999996,0.0,0.0
13.651371999999997,0.0,0.0
13.655448,0.0,0.0
13.659535999999996,0.0,0.0
13.663619999999996,0.0,0.0
13.667703999999992,0.0,0.0
13.671788,0.0,0.0
13.675871999999998,0.0,0.0
13.679959999999994,0.0,0.0
13.684055999999998,0.0,0.0
13.688151999999995,0.0,0.0
13.692248,0.0,0.0
13.696347999999992,0.0,0.0
13.700376,0.0,0.0
13.704479999999997,0.0,0.0
13.708535999999995,0.0,0.0
13.712632,0.0,0.0
13.716727999999996,0.0,0.0
13.720831999999994,0.0,0.0
13.724923999999994,0.0,0.0
13.728967999999997,0.0,0.0
13.733075999999995,0.0016020337002673902,0.0
13.737187999999996,0.009373860625682665,0.0
13.741283999999991,0.017932179526174895,0.0
13.745391999999995,0.025261106851850682,0.0
13.749427999999996,0.031249917702775163,0.0
13.753527999999996,0.038811712503853554,0.0
13.757619999999996,0.047725041455216104,0.0
13.761711999999996,0.05967361340695159,0.0
13.765755999999996,0.07376021148404818,0.0
13.769796,0.09324152848674856,0.0
13.77384,0.11890405639012971,0.0
13.777932,0.15433666269423887,0.0
13.782027999999997,0.19147581319950252,0.0
13.786123999999994,0.2311079998809976,0.007983198697868298
13.790163999999995,0.27603559826369445,0.01607957665942399
13.794247999999996,0.32816376699755156,0.024012750956897803
13.798336,0.39029488160753945,0.03154322310237874
13.802383999999996,0.4609781007189716,0.039028160352288975
13.806419999999996,0.5388733078570969,0.04667045789819481
13.810451999999998,0.6233047359467734,0.05443819741749716
13.814483999999991,0.7173778854626623,0.06199877780923069
13.818511999999998,0.8100230289549308,0.06976319325980457
13.822547999999998,0.9118960440237857,0.07746446503949352
13.826583999999997,1.031625507044008,0.08478906415145869
13.830611999999997,1.1639388416654612,0.09200638058022596
13.834639999999991,1.302223355063259,0.09926767687728837
13.838679999999997,1.4464790472374,0.10660258146090569
13.842707999999996,1.5934492253876429,0.11402850972610423
13.846747999999998,1.746944206813903,0.12142496750169243
13.850779999999991,1.8994426641407505,0.12889536548385147
13.854819999999997,2.0512767720679874,0.13638019787385552
13.85886,2.2017707635204733,0.14377590968061943
13.862907999999996,2.3536048714477107,0.15123154137950234
13.866947999999994,2.506435503474362,0.15070745885872097
13.870979999999996,2.6592547178254806,0.15002719972520115
13.87502,2.809149414076161,0.14950459886494777
13.879051999999994,2.9524199998264216,0.14940144974656414
13.883083999999997,3.092976099600581,0.14924249781762064
13.887111999999997,3.227671745498331,0.14893319662539034
13.891151999999998,3.3581906463697604,0.14847244602402734
13.895179999999996,3.476014950740024,0.14830058464809867
13.899263999999995,3.5915676687339264,0.14788630922753057
13.903291999999992,3.6968845733762956,0.1475593337514557
13.907383999999992,3.7835585380922208,0.14767559026758142
13.911412,3.861458948506831,0.14785999635208022
13.915447999999998,3.930475079720192,0.14807011939044043
13.919539999999998,3.994073656656884,0.14815218686959408
13.923623999999997,4.051922504617102,0.14814323066716645
13.927664,4.101784290251082,0.14816688947369247
13.931655999999997,4.1480343730339495,0.14810775522918168
13.935643999999996,4.1913485200408465,0.14798436932583375
13.939684,4.2232088797969265,0.1480479058502394
13.943723999999996,4.25370628772719,0.1480217081048952
13.947755999999998,4.282397844231896,0.14796266547376696
13.951795999999996,4.305916131610868,0.1479348182146793
13.955895999999996,4.325269091639052,0.14790072617531724
13.959987999999996,4.341243216291526,0.14784988454607834
13.963967999999994,4.348466621993753,0.14798614663064832
13.967996,4.354338493545694,0.14811539768250945
13.972035999999996,4.357740164272471,0.14828264712884717
13.976087999999995,4.366513718573786,0.14825013539394594
13.980171999999996,4.375840897374775,0.1481617311860259
13.984215999999996,4.387183959725657,0.14801038949216985
13.988256,4.3986377469764735,0.14784279814065782
13.992244,4.404929682777089,0.1477738530380349
13.996339999999996,4.415585560377296,0.14754114657712974
14.000375999999996,4.423439062452532,0.1473823992753395
14.004475999999997,4.434205664952675,0.1471428193681219
14.00848,4.443510008402597,0.14690777331758545
14.012527999999996,4.452138584777377,0.14667017405797866
14.016619999999996,4.456502526576968,0.1465093157694869
14.020711999999996,4.466238351951099,0.1461555287288654
14.024743999999998,4.476638526724837,0.14573837254106495
14.028788,4.486695109123238,0.14528806532948774
14.032823999999998,4.498091807996391,0.14477678897054963
14.036911999999994,4.50791552291939,0.14427927571455124
14.040999999999997,4.518292862342062,0.14372666792969793
14.045091999999997,4.532923418664392,0.14302737069766935
14.04918,4.548894091461473,0.14226784655237157
14.053272,4.564631896783152,0.14145887199791404
14.057359999999996,4.575772892829835,0.14076282285895445
14.061448,4.582095629801655,0.1401946075735681
14.065531999999996,4.588074774398139,0.139594125072789
14.069623999999996,4.596291252344385,0.1389108748404853
14.073711999999992,4.607642280515406,0.13812497749628394
14.077799999999996,4.617088150036468,0.1373957098382975
14.081888,4.626755469357401,0.13664139424715277
14.085975999999995,4.633731138053297,0.13594648667984452
14.090067999999995,4.640817531649129,0.1352382760191466
14.094155999999998,4.650030533694789,0.1344676164809276
14.098243999999994,4.663053853040365,0.13360803088224105
14.102335999999994,4.672942622161169,0.13284813490299396
14.106364,4.680594057932208,0.13217091983238743
14.110391999999996,4.686118885253418,0.1315607721955541
14.114419999999996,4.690414320999812,0.1310023459196561
14.11846,4.6965041904962295,0.13041044573416793
14.122487999999995,4.7024833350927135,0.1298317757099632
14.126483999999998,4.7056601041642265,0.12931204960190926
14.130567999999997,4.70951264031088,0.12880241831969463
14.134603999999996,4.71493816040769,0.12828483060138182
14.138692,4.720474405404434,0.12775554925158228
14.142719999999995,4.728026533951071,0.12717224391869505
14.146763999999996,4.734238546022956,0.1266496705606912
14.150799999999997,4.740450558094842,0.12612866311514623
14.154832,4.74733833724187,0.12561647255059638
14.158876,4.752542407538808,0.1251247369087269
14.162915999999996,4.761667520035599,0.12454752615530636
14.167004,4.771124807232194,0.12394156465769597
14.171048,4.782708702878618,0.12327858391839613
14.175135999999997,4.790482281225125,0.12269494243076608
14.179227999999997,4.796572150721542,0.12213341032892379
14.183315999999998,4.804899353567723,0.12150532632230845
14.187411999999997,4.812882964038567,0.12084077067002863
14.191451999999998,4.823214632759109,0.12010084872571522
14.195483999999992,4.834664968154533,0.11933141325156776
14.199575999999992,4.8471232453249025,0.11854345809516362
14.20368,4.856557697170432,0.11782190566506302
14.207819999999998,4.868905249440867,0.11704255423227546
14.211951999999997,4.878893325786072,0.11627630106658834
14.216051999999998,4.885181809731293,0.11556964441976224
14.220139999999994,4.893375452326473,0.11482982566330473
14.224179999999995,4.9029092113964055,0.11404207917823454
14.228207999999997,4.912099378091,0.11321786554780583
14.232235999999991,4.924202645210499,0.11234610199610925
14.236196,4.936527362129868,0.11146115271889231
14.240223999999998,4.948852079049238,0.11057505188144069
14.244267999999998,4.953556161368773,0.10982067301598535
14.24832,4.958038793888439,0.10908791604751102
14.252371999999994,4.961402759733223,0.10838932585860267
14.2564,4.965663942453018,0.10767622635668589
14.260391999999996,4.967012024747908,0.10701398631750207
14.264323999999997,4.964106890143143,0.10645407853735796
14.268327999999997,4.960537406138768,0.10595154257817471
14.272379999999998,4.953722647009683,0.10553099487916802
14.276427999999996,4.9410816870307865,0.10521476927300888
14.280479999999995,4.928330002151956,0.10490764651185769
14.284471999999994,4.917262026123215,0.10458677082290375
14.288503999999996,4.9010436163198055,0.10437985838373735
14.292507999999998,4.882477148266698,0.10424399762214981
14.296555999999995,4.8673888228137026,0.10407222783353064
14.300599999999996,4.850284613810813,0.10394113794813299
14.304555999999998,4.828816463008333,0.10392350965885687
14.30856,4.808589121456202,0.10393064019908096
14.312487999999997,4.784440737704218,0.10400687084321844
14.316531999999995,4.7581657455024065,0.10413167862988072
14.320567999999994,4.73346373725075,0.10425268324758183
14.324603999999994,4.717168855574004,0.10424714581914339
14.328635999999996,4.698858090347364,0.10428182231774646
14.332667999999998,4.680547325120724,0.10431418634690846
14.336695999999996,4.66514966031899,0.10429343256450391
14.340779999999995,4.653451587917238,0.10422103417889174
14.344811999999996,4.645896007515208,0.10405806822885952
14.348899999999992,4.640467035563006,0.10384494108885162
14.352936,4.637951164035709,0.10358128360112485
14.356972,4.643842419083322,0.10319682139436447
14.360999999999995,4.644804690156137,0.10290068703794014
14.365032,4.649798728328739,0.10252666223936831
14.369124,4.664429284651069,0.1019974267605131
14.373216,4.682870158273316,0.10140692835586083
14.377243999999996,4.70254042347038,0.10078439855748281
14.381291999999997,4.722997180642519,0.10016194254718291
14.385331999999998,4.748493646689392,0.0994419113536847
14.389367999999996,4.771409187011165,0.0987415320150803
14.393455999999992,4.794103277533068,0.0980584843225843
14.397495999999997,4.8188132516048645,0.09733894384161446
14.401539999999995,4.842958183501453,0.09660487880663478
14.405579999999992,4.863292798098124,0.09593846342767598
14.409608,4.88542184644482,0.09525130873261217
14.4137,4.909123878741671,0.09457084680828792
14.417795999999996,4.932604461238651,0.09391987409321277
14.421879999999994,4.955974318835696,0.09328457890091583
14.425919999999998,4.978225509757859,0.09268179962493747
14.429959999999994,5.001373917555035,0.09207837722067393
14.433991999999996,5.024411600452275,0.09148999552726927
14.438075999999995,5.040947315424564,0.09098043469419737
14.442163999999998,5.06241201437165,0.0903903200602089
14.446244,5.080287845818691,0.08983903012566638
14.450328,5.09233747641592,0.08938002128096588
14.454367999999995,5.104497831913084,0.08891555791878153
14.458455999999998,5.113745086985341,0.08849394147951113
14.462483999999996,5.120300691432566,0.08809233579472889
14.466567999999995,5.121030095029978,0.08777008165945899
14.470647999999995,5.123553932377414,0.08743235178916099
14.474731999999996,5.129101595049689,0.08704684126506519
14.478811999999998,5.136554416371924,0.0866426346077841
14.482844,5.142999295919212,0.08625498430239999
14.486875999999995,5.148436233691554,0.08588297285771465
14.490903999999992,5.156896996788737,0.08546721612310365
14.494995999999992,5.164792717710711,0.08503542276222954
14.499087999999992,5.168878121332768,0.08464787623979221
14.503172,5.172963524954825,0.08426237901641707
14.507259999999995,5.1733493361769,0.08390915538351636
14.511351999999995,5.170932771874004,0.08358480549511378
14.515448,5.168405482671174,0.08327028838306952
14.519543999999996,5.170696452543209,0.0828982291143715
14.523635999999996,5.1757897979402125,0.08250368893747752
14.527727999999996,5.182456127287371,0.08211541614886118
14.531823999999991,5.189343906434399,0.08171081795306052
14.535919999999996,5.1963424104813605,0.08130063221959759
14.540011999999995,5.203340914528324,0.080889693325784
14.544107999999994,5.216054894525163,0.08042054765053964
14.548203999999998,5.2367216838216395,0.07984984645492973
14.552299999999995,5.257388473118116,0.07928095044726623
14.556396,5.273679902939469,0.07873259631634671
14.560491999999996,5.283247915035999,0.07825576839801687
14.564587999999992,5.291697260457648,0.07779948074630073
14.568683999999998,5.298573621929143,0.07733423522656147
14.572771999999992,5.300853174125644,0.07690567975834091
14.576867999999996,5.299211684122294,0.07652219136958213
14.580963999999994,5.29991825236864,0.0760850310074543
14.585063999999996,5.296249461139862,0.07566279968134404
14.589163999999997,5.298406870760895,0.07517527366005995
14.593259999999994,5.30146149725694,0.07468249050936598
14.597299999999995,5.301259430952743,0.07418265521106455
14.601391999999995,5.299152205998587,0.07370326436146266
14.605475999999996,5.290543013119478,0.07327439842840643
14.609559999999997,5.281258053165228,0.07283356727635547
14.613647999999998,5.269392167485876,0.07239518069950625
14.617739999999998,5.255621123156566,0.07197318216296715
14.621831999999998,5.243865962377149,0.07152511531398688
14.625923999999998,5.228411209197752,0.07110248737227527
14.629951999999996,5.209600455993708,0.07074281745901086
14.633995999999996,5.190900427689599,0.07037383285744987
14.638027999999998,5.173884108235579,0.07000206796562096
14.642119999999998,5.160002339006334,0.06958230793368382
14.646099999999995,5.149930887077005,0.06913047012023235
14.650132,5.144234794622803,0.06866749970402465
14.654163999999994,5.13831725236873,0.06821822172413301
14.658195999999997,5.136431477214443,0.06771957863282387
14.662231999999996,5.1334270353852745,0.06724089534940589
14.666267999999995,5.1345765032313615,0.06676754031066036
14.670295999999992,5.135393796377643,0.06632319407383186
14.674327999999996,5.136211089523925,0.06587927724354435
14.678311999999998,5.1414037421453305,0.06542754854412137
14.682351999999996,5.147382886741814,0.06498262086582907
14.686383999999997,5.155045740188386,0.064537060122593
14.690416,5.160471260285195,0.0641301588691031
14.694447999999994,5.173074515382098,0.06370239065632119
14.698499999999996,5.184448378904185,0.06330088458414175
14.702531999999998,5.194703575751391,0.06292108740545467
14.706567999999995,5.20372938102378,0.06256756471314746
14.7106,5.212079419221027,0.062201834148768405
14.714636,5.220318732518337,0.06184539104065204
14.718663999999997,5.231249696440686,0.06148306011859862
14.722691999999997,5.2455480780632096,0.06112988830026915
14.726723999999995,5.257154809060698,0.06078636312563772
14.730751999999995,5.26495122275827,0.0604690078721179
14.734835999999994,5.277455170630773,0.060125320413392296
14.738871999999994,5.285816626503552,0.05983110848092813
14.7429,5.29305941570145,0.05955448335089312
14.746935999999998,5.298950670749065,0.05925040085424488
14.751023999999994,5.303047492046655,0.05895215374731119
14.755167999999998,5.306247096469233,0.05865589786100074
14.759299999999996,5.3047391667168835,0.05838548382997033
14.76334,5.30143680321451,0.05811899650600679
14.767328,5.298355889512004,0.0578355181120407
14.771423999999996,5.2994174678092225,0.05750474248364488
14.775519999999991,5.2928584115066055,0.05722115153004745
14.779619999999994,5.289544630328699,0.056891965381255155
14.783719999999995,5.286120124250857,0.056570826380711065
14.787811999999995,5.2877353270477485,0.056202828917505124
14.791908,5.289239804944705,0.05584328238255372
14.796003999999996,5.290855007741597,0.05547629697897018
14.800099999999992,5.292470210538488,0.05511239612627486
14.804199999999994,5.289599328960321,0.05475570020183061
14.808299999999996,5.28751493935723,0.05440522261500309
14.812396,5.288675824878848,0.0540119268412776
14.816491999999997,5.2851291762255395,0.05364054806021716
14.820532,5.284384903097202,0.05325635969294294
14.824559999999998,5.286443005493831,0.052860837455723626
14.828595999999996,5.289176874965605,0.052480032756544004
14.832635999999994,5.289219093812343,0.05210045993932394
14.836667999999996,5.290158529534093,0.05171971709146417
14.840708,5.292892399005866,0.05133489085755317
14.844739999999994,5.290918734302711,0.050965738866269525
14.848775999999994,5.290628778449643,0.05060330550402361
14.852804,5.287314997271736,0.05026776599697233
14.856835999999994,5.282206782343805,0.04992890896959331
14.860875999999998,5.271837408741272,0.04964795345578299
14.864903999999996,5.256871225863744,0.04937567320786294
14.868931999999994,5.234960175461524,0.04915498148443878
14.87296,5.208341590884375,0.048950899536581
14.877043999999998,5.181612281407293,0.04875308889885559
14.881127999999997,5.148159554205387,0.0485894990448691
14.885216,5.11470682700348,0.04842275792849355
14.889308,5.078230274476733,0.04828081391752338
14.8934,5.038508446825278,0.048178410877408276
14.897495999999997,4.9967707356239295,0.04809256363939866
14.901591999999994,4.953238590672557,0.048005586685511824
14.90562,4.906793345296279,0.047934752313806
14.909712,4.856427057720149,0.04788938975643323
14.913756,4.806847262119096,0.047849500241931894
14.917787999999994,4.753567874118063,0.047816043898031006
14.921879999999994,4.699280544342081,0.04779039454164189
14.925919999999998,4.647574140291199,0.04777391941101904
14.929848,4.5930653607153475,0.0477637694774256
14.933851999999996,4.533406147364828,0.04781120500852037
14.9379,4.47744652641429,0.04784822689118817
14.942003999999995,4.424510730788593,0.04785846060877525
14.946051999999996,4.375274527562878,0.047857797978580606
14.950151999999996,4.3269355412121735,0.047859190250020535
14.954251999999997,4.279161597036678,0.047892972253567014
14.958351999999998,4.226458668886383,0.04796814867471267
14.962447999999997,4.174542232711164,0.048058695745720546
14.966547999999996,4.118483304536224,0.0482057555674572
14.970591999999996,4.063653767936101,0.04832166734215244
14.974632,4.0107293899859355,0.048425501904344005
14.978679999999995,3.9599316204855994,0.048497220473942206
14.982732,3.9100310678602743,0.048566472733657357
14.986779999999996,3.8594547481598087,0.04861283482634072
14.990807999999994,3.810894312009235,0.048637788221292555
14.994839999999996,3.76121520918378,0.04868547619881129
14.998919999999998,3.7094094979084966,0.04877080148802132
15.003003999999995,3.657825236433083,0.04883112350267378
15.007039999999996,3.6073596416325513,0.04886903980954961
15.011072,3.5539809464071146,0.04893235984221909
15.015116,3.5056419600564115,0.04894073811625135
15.019104,3.4564057568306956,0.0489463232971356
15.0231,3.402462019430051,0.04897869355168901
15.027136,3.3457159065044375,0.04902332683682173
15.031132,3.2882940265036806,0.04904401640195884
15.035187999999998,3.234117421627634,0.0490017072599526
15.039235999999995,3.180051541651522,0.048952199688657605
15.043228,3.1300174287751963,0.048846790773576884
15.047275999999997,3.0868174585236283,0.04867123357128605
15.051364,3.038577779397327,0.048565943659954855
15.055363999999996,2.9819309736961146,0.04851018668456537
15.059447999999996,2.924165501320021,0.04847873762789653
15.063531999999997,2.862700436543944,0.04846200499701192
15.067559999999991,2.7972036046680806,0.04851244574880701
15.071644,2.7315960478922823,0.04857654229164293
15.075683999999995,2.6652019991414075,0.04863190256673092
15.079771999999998,2.6056420930152897,0.04859583460904564
15.083863999999998,2.5430583615643316,0.048609533442053245
