Time,Force,Position
16.6145,0.009447386290465196,0.0
16.618592,0.0056306054024266635,0.0
16.622692,0.003718983164346651,0.0
16.626784,0.0009101440512548147,0.0
16.630868,6.46358812149605e-06,0.0
16.63496,0.0,0.0
16.639047999999995,0.0,0.0
16.643136,0.0001286061635892197,0.0
16.647223999999994,0.003956804727160603,0.0
16.651311999999997,0.010808828615572069,0.0
16.655395999999996,0.017660852503983533,0.0
16.659492,0.024734326192264743,0.0
16.663584,0.03169707498061108,0.0
16.667679999999997,0.04314590814401653,0.0
16.671712,0.05268958265746347,0.0
16.675804,0.06335192384579197,0.0
16.679896,0.07603014858401386,0.0
16.683983999999995,0.08971631509718245,0.0
16.688024,0.1045211482852326,0.0
16.692059999999998,0.1175315477232591,0.0
16.696148,0.1315498889362323,0.0
16.700179999999996,0.14366307149924695,0.0
16.704212,0.15387109541230315,0.0
16.708307999999995,0.16418984422529417,0.0
16.712336,0.17562725971316678,0.0
16.71642,0.18347580770099212,0.0
16.720504,0.19311878943884106,0.0
16.724539999999998,0.20375183168798236,0.0
16.728635999999995,0.21270116508703488,0.0
16.732727999999994,0.2148163558613303,0.0
16.736815999999997,0.2169315466356257,0.0
16.740848,0.21479352051026454,0.0
16.744875999999998,0.21657653658475534,0.0
16.74888,0.2051277034213499,0.0
16.752972,0.19570121739595933,0.0
16.757016,0.18503887620763085,0.0
16.761111999999997,0.17236065146940893,0.0
16.7652,0.16069683209425525,0.0
16.769239999999996,0.14679567936933843,0.0
16.773343999999994,0.1344675105945755,0.0
16.777435999999994,0.12191789201994283,0.0
16.781475999999998,0.11138415699520354,0.0
16.785564,0.10185836374541095,0.0
16.7896,0.09491349622071896,0.0
16.793695999999997,0.08763645399622236,0.0
16.797739999999997,0.08473477124684999,0.0
16.801792,0.07824422099743035,0.0
16.805844,0.06861912052323575,0.0
16.809939999999997,0.05597019472420107,0.0
16.813987999999995,0.04914746977497679,0.0
16.818039999999996,0.04221401992581765,0.0
16.822024,0.04413059625130902,0.0
16.826107999999998,0.041339638401871534,0.0
16.830191999999997,0.05121548761512309,0.0
16.834272,0.060187656365241315,0.0
16.838355999999997,0.06916628870348104,0.0
16.842439999999996,0.07691552946690434,0.0
16.846539999999997,0.0788321057923957,0.0
16.850631999999997,0.08186734879276863,0.0
16.854659999999996,0.08310815804311794,0.0
16.85866,0.08357389299392312,0.0
16.862688,0.08888072237065775,0.0
16.866771999999997,0.10038018032360597,0.0
16.87086,0.114040499752981,0.0
16.874888,0.1349128072090492,0.0
16.878932,0.16681883766726038,0.0
16.883019999999995,0.21392391847840198,0.008731222268263781
16.887116,0.2788089753675746,0.01730767590683452
16.891143999999997,0.3603553416598965,0.025822462354512722
16.895072,0.4543098004557114,0.034437777535194176
16.899111999999995,0.5649255686546757,0.042953111188708586
16.903155999999996,0.6853685036320323,0.05150130637352657
16.907196,0.8224727480125382,0.05999824428130212
16.911227999999994,0.9725387093962117,0.06838575422470834
16.915267999999998,1.1402739219579807,0.07668473200996284
16.9193,1.3243268515475621,0.08490989949202679
16.923384,1.525926889739772,0.09305981379311329
16.927467999999998,1.749781570709539,0.10106481591570624
16.931563999999995,1.9902861434069223,0.10898719509147747
16.935607999999995,2.2487807243066738,0.11683598786327654
16.939608,2.5221079278329523,0.12459725043892718
16.943655999999997,2.8028571515102607,0.1323114317035046
16.947739999999996,3.089333268812978,0.13997898602257117
16.951819999999998,3.381414137165636,0.14759294552046376
16.955895999999996,3.674823704317512,0.15513663204864037
16.959927999999998,3.9609105585427615,0.16265888945200754
16.964011999999997,4.23650589659001,0.16139112094050292
16.968108,4.494874883058902,0.1602821707916023
16.9722,4.738365576199135,0.15917851096318836
16.976295999999998,4.969326034260408,0.15788855578372663
16.980387999999998,5.18473243191788,0.15662716797736634
16.984479999999998,5.387387144696521,0.15524880544936537
16.988523999999998,5.575163564146504,0.15385917069469293
16.992619999999995,5.747618790668087,0.15251958139464025
16.996716,5.904863549161206,0.15120201645863476
17.000811999999996,6.0445497813761655,0.14995238242014497
17.004908,6.166456037513092,0.1487798135455167
17.009003999999997,6.267337042447279,0.14778221781234305
17.013051999999995,6.352576097428796,0.14684679160226216
17.017151999999996,6.421841027757837,0.14598495179615345
17.021243999999996,6.477380584459701,0.14518256446626976
17.025287999999996,6.520878476384475,0.14440404260111128
17.029343999999995,6.556488613207416,0.14360461980664546
17.033451999999997,6.584997486903597,0.14277744195381523
17.037555999999995,6.604511356498596,0.14199795906004553
17.041655999999996,6.620978565417687,0.14119081425675686
17.045755999999997,6.639793832586475,0.14033421343271069
17.049856,6.661632925080102,0.13941880996172376
17.053956,6.681234684223966,0.13855972842556435
17.058015999999995,6.701290760643103,0.13772844800973277
17.062067999999996,6.718666604112737,0.1369828199233025
17.066167999999998,6.731678505782781,0.1363392578362543
17.070259999999998,6.742342349203125,0.13575805919301617
17.07436,6.750093092198566,0.13522868297004018
17.078407999999996,6.754598560069296,0.13477303820770586
17.082507999999997,6.763700837215021,0.1342536393241502
17.086551999999998,6.779415807185634,0.13363603904527122
17.090655999999996,6.799838311331176,0.13294633552068347
17.094739999999994,6.821600931951469,0.13222139971368835
17.098839999999996,6.845600885921525,0.13144852722736675
17.102891999999997,6.868703623016569,0.13068971709534902
17.106987999999994,6.892814301886559,0.12991650115902786
17.111027999999997,6.916249213681406,0.12915020345093844
17.115075999999995,6.932849982851497,0.12849626249113222
17.119111999999994,6.947656318271563,0.12786310795178413
17.123199999999997,6.959438828366789,0.12728427304175458
17.127232,6.963489978962247,0.126828718792838
17.131268,6.968438346432718,0.1263662597292773
17.135351999999997,6.9774184810029745,0.12583610246634602
17.139427999999995,6.983706964948197,0.12533843615598536
17.143511999999994,6.99133556536817,0.12480100754235134
17.147548,7.004901091537888,0.1241701546029308
17.151627999999995,7.022276935007524,0.12348769784793273
17.155659999999997,7.041336487327248,0.12279243107595793
17.159687999999996,7.063309140071878,0.12205427285141984
17.163771999999994,7.080463533741645,0.12138935844705377
17.167803999999997,7.089997292811576,0.12083313554792337
17.171935999999995,7.09784734303142,0.1202916726008266
17.17602,7.102784292826358,0.11979404270457361
17.180107999999997,7.103013708446366,0.11935655440545778
17.184188,7.102567356991233,0.1189142518269235
17.188215999999997,7.1021210055361,0.1184735725522084
17.192299999999996,7.095848453231156,0.11811409286111557
17.196335999999995,7.095512826675957,0.11766526221590076
17.200367999999997,7.0969716338707824,0.11719771602364165
17.204463999999994,7.104367366815353,0.1166445935430501
17.20856,7.1138897082097525,0.11605089873618167
17.212655999999996,7.118483065629353,0.11552956704161917
17.216752,7.11803671417422,0.11508684356480031
17.220847999999997,7.1147879871941155,0.11467512430414568
17.224883999999996,7.115349577513929,0.11421662368363497
17.228915999999998,7.1100849669839326,0.11383728021829946
17.233007999999998,7.103025922703913,0.11347555867600735
17.237096,7.094172444673868,0.11312968663533582
17.241183999999997,7.080611432468894,0.11283796457396209
17.245224,7.068279811838738,0.11251613943269725
17.249319999999997,7.059082741433357,0.11214059195487161
17.253415999999994,7.050107120827845,0.11175106472356154
17.257512,7.03653469094734,0.11140708213724386
17.261607999999995,7.028223419741438,0.11097267651596379
17.265704,7.021141540110351,0.11050893162108594
17.269748,7.008565634329259,0.11009887921606372
17.273843999999997,6.999235003672877,0.10962729243149115
17.277876,6.986315505516448,0.10918759759150347
17.281912,6.975068298534573,0.10869166918813414
17.285947999999998,6.95350880632783,0.10830747816215877
17.289944,6.931949314121087,0.1079212588762116
17.293976,6.910611271714213,0.10751872902934106
17.298012,6.888597462232197,0.10710726312094314
17.302048,6.869164578475282,0.10667645557521518
17.306027999999998,6.845810652518516,0.10629694516541655
17.310035999999997,6.829180144286571,0.10583456996013829
17.31404,6.811430969379744,0.10539247620325558
17.318095999999997,6.797935011372575,0.10487780801694735
17.322143999999994,6.789589487140074,0.10428243044728613
17.326195999999996,6.783149121557531,0.10366565501701216
17.330203999999995,6.773795655550083,0.10308263197175867
17.33426,6.758615988692824,0.10256717408966295
17.338307999999998,6.752397072910152,0.10192862902169326
17.34236,6.743154331802638,0.1013333680514759
17.346407999999997,6.728085389845315,0.10080417439161131
17.350455999999994,6.719064098537671,0.10018814093652924
17.354507999999996,6.711726516080117,0.09956533846170545
17.358551999999996,6.703159542047746,0.09896674698919584
17.362595999999996,6.689220684440837,0.0984558751343099
17.366639999999997,6.683799678308776,0.0978524396753899
17.370683999999997,6.67636278862682,0.09727394540444098
17.374727999999998,6.672736216244781,0.09665325757052527
17.378771999999998,6.674603670012747,0.09598440111727291
17.382816,6.681400107755511,0.09525905245234917
17.3868,6.687188603723329,0.09454541567354365
17.390783999999996,6.686253681966325,0.09390710836863544
17.394824,6.684642993134178,0.09325949117932984
17.398827999999995,6.679565579377453,0.0926807473655045
17.402884,6.673148049145977,0.09213681051070942
17.40688,6.665390402439748,0.09162708158556727
17.410868,6.662229565008513,0.09108041533518986
17.414848,6.668483795927136,0.09044672906042428
17.418844,6.6711605770212445,0.08988910810382532
17.422875999999995,6.675299617165574,0.08934158303175166
17.426904,6.689418767834965,0.0887260556834478
17.430932,6.703660061079828,0.0881574410348608
17.434967999999998,6.716561237849937,0.08762360226118328
17.438995999999996,6.7311461234701335,0.08708360170242391
17.443039999999996,6.749652051290185,0.08650030088599098
17.447075999999996,6.7639047622105775,0.08598061025826953
17.451107999999998,6.781857065530952,0.0854332635894355
17.455143999999997,6.7966748186265535,0.08492953702509462
17.459187999999997,6.8095874130721965,0.08444617524381504
17.46322,6.815555139993146,0.08403962712769351
17.467256,6.822641533588977,0.08361413664662734
17.471384,6.830292969360018,0.08320111663799026
17.475476,6.840414605956223,0.0827873819610946
17.479571999999997,6.851433459427439,0.08236884377139685
17.483667999999994,6.863017355073863,0.08196703078768953
17.487759999999994,6.872917541870198,0.08156775117466392
17.491859999999996,6.8779994695916695,0.0812125523848874
17.495939999999997,6.878152413338342,0.08090913392288025
17.500023999999996,6.877408140210004,0.08061007304230458
17.504107999999995,6.872742824881813,0.08034844430192686
17.508195999999998,6.8624727585036815,0.08012786430433406
17.512284,6.846708665975543,0.07993984351105977
17.516371999999997,6.829936631672458,0.07976232481737505
17.52046,6.815069756019332,0.07956880918428322
17.524552,6.8005464727415434,0.07940341636400734
17.528636,6.78803907301365,0.07921556591280153
17.532663999999997,6.774413006610873,0.07904468448524535
17.536747999999996,6.766613141057906,0.07882237864415463
17.540776,6.757583883930123,0.0786232865623926
17.544799999999995,6.751467727227246,0.07839799243018077
17.548835999999994,6.745805887799642,0.07819438155553568
17.552864,6.741594889746723,0.07795317175376609
17.556891999999998,6.733684299293821,0.0777339738194715
17.560919999999996,6.725884433740855,0.07750802574714694
17.564951999999998,6.7175195260126825,0.07726646654425354
17.568987999999997,6.711956993809479,0.07700626837848935
17.573023999999997,6.710991270881269,0.0767200820694571
17.577008,6.711144214627941,0.07641693710492227
17.581052,6.712083650349693,0.07611630117672305
17.585099999999997,6.717841345146306,0.07577713327510299
17.589152,6.722701823067907,0.0754407053241159
17.593199999999996,6.734064268914461,0.07506508368178444
17.597251999999997,6.744750947685873,0.07467904785967851
17.601299999999995,6.756445568232233,0.07428574385381034
17.605339999999998,6.769480305253341,0.07386537981584604
17.609384,6.781507100499506,0.07345536925084367
17.613428,6.792858128670527,0.07303636088473103
17.617475999999996,6.797264289316855,0.07268162127152229
17.621471999999997,6.802789116638065,0.07231050004731226
17.625507999999996,6.807195277284395,0.07195557719554792
17.629551999999997,6.810814945955649,0.07159732995142708
17.633604,6.817802032327078,0.07124069377380642
17.637648,6.828488711098489,0.07086436598720607
17.641703999999997,6.840072606744912,0.07048639574278114
17.645759999999996,6.851435052591467,0.07012225086374774
17.649808,6.862576048638151,0.06977289516263027
17.653907999999994,6.8710253940598,0.06943391874393709
17.658007999999995,6.878134623006698,0.0691233342224564
17.662056,6.883670868003441,0.06880546076776234
17.666103999999997,6.887412679250161,0.06849477698276876
17.670156,6.89586202467181,0.06815844431878994
17.674208,6.896912185293495,0.067856484669239
17.678204,6.899646054765268,0.06755486789333859
17.682303999999995,6.898348157137254,0.06728960857999569
17.686335999999997,6.89256417513418,0.06703742489984339
17.690315999999996,6.890590510431024,0.0667629526544606
17.6943,6.889181887903075,0.0665045543911444
17.698332,6.8905756409000976,0.06623124521052727
17.702363999999996,6.89477176942209,0.06594574333935649
17.706447999999995,6.900873056594041,0.06564934325983877
17.710532,6.909665994391027,0.06534653001572997
17.714616,6.9119569642630605,0.0650729421189432
17.718643999999998,6.9131292674602145,0.06481475329218192
17.722676,6.909594036482438,0.0645798150161815
17.726712,6.903256429979691,0.06435718654271715
17.730804,6.8960216066019315,0.06413700517406436
17.734899999999996,6.89237565072422,0.06390835491110633
17.738991999999996,6.891753520171349,0.06365488022056054
17.743088,6.893823040243512,0.0633948892650106
17.747124,6.895781835415742,0.06314138402225074
17.751155999999995,6.893930313288053,0.06290932584512604
17.75524,6.898580759085317,0.06265001872662206
17.759383999999997,6.904239146657529,0.0623833455962821
17.763475999999997,6.915047968004408,0.06207115744421077
17.767567999999997,6.928105540376585,0.06177715221890214
17.7716,6.93813928742392,0.06150911175422377
17.775692,6.948394484271126,0.0612293679528875
17.779728,6.96077628956816,0.060929264249644184
17.783868,6.967221169115448,0.06067047843187737
17.787955999999994,6.971982339812647,0.06040949944477696
17.792047999999994,6.974051859884812,0.06015416837834193
17.796188,6.981615406106981,0.05988242082965219
17.800272,6.989511127028955,0.059593047651408666
17.804415999999996,7.003122323900804,0.05927580041409293
17.808499999999995,7.021441054947583,0.058938861227270684
17.812639999999995,7.03606019359438,0.058612961548813486
17.816727999999998,7.0458610731663125,0.05831386761037469
17.820819999999998,7.055772677638181,0.058011278034258755
17.824908,7.064565615435167,0.057723061148849925
17.829,7.073580003032022,0.057423560421343486
17.833036,7.084499549278838,0.057116043212213335
17.837123999999996,7.092616720000682,0.05681945201258434
17.841212,7.0996152240476444,0.05653687437495661
17.845299999999995,7.100566077444927,0.05629774999946874
17.849387999999998,7.101627655742144,0.05605272471839661
17.853428,7.10201346696422,0.05579683439350386
17.857459999999996,7.103296495061307,0.055540425240080134
17.861492,7.1006584809585425,0.05530627644732716
17.865531999999995,7.103060175730511,0.05503706059578363
17.869619999999998,7.105351145602545,0.05477339308883369
17.873647999999996,7.107642115474579,0.05450929145866865
17.877724,7.106344217846564,0.05424924880266247
17.881704,7.104824870418681,0.05400121677754858
17.88568,7.100281697665958,0.05377391820979854
17.88966,7.092038932513252,0.053555795489533965
17.893691999999994,7.08839297663554,0.05332681950536961
17.89772,7.086984354107592,0.05307206352320243
17.901759999999996,7.078852313854821,0.05284547422606895
17.905744,7.069147289651897,0.05260776834392049
17.909796,7.057315656999144,0.05238846594427146
17.913843999999997,7.045373299446457,0.05217529451128506
17.917891999999995,7.0361225925188045,0.05196026424123758
17.921988,7.025188176741063,0.05173985084275292
17.926035999999996,7.018285528063109,0.05149268999727351
17.930135999999997,7.01171505408496,0.05122769527552013
17.934188,7.006041796981821,0.05096179583503864
17.938283999999996,6.997344714553843,0.05071467774660918
17.942324,6.988758357025801,0.05046027197569631
17.946424,6.974567248447817,0.05021931489326248
17.950516,6.960376139869834,0.049977420256125143
17.954563999999998,6.944390597541826,0.04973465132589565
17.958591999999996,6.929191547188896,0.04949632982116973
17.962579999999996,6.908952787961233,0.04928840686649905
17.966615999999995,6.888824753633504,0.04907347817350735
17.970644,6.869593936180786,0.048856872782399745
17.974736,6.847671468103034,0.04864018754523925
17.978763999999998,6.820598566250612,0.048459541904714534
17.982851999999994,6.79845464837299,0.04825132555357872
17.986888,6.775978555795563,0.04805998684344783
17.990975999999996,6.752605246343124,0.04786720219789627
17.995064,6.7199275934407625,0.04769256823607369
17.999156,6.680637247713513,0.047536891148332275
18.003243999999995,6.639441743336305,0.047385506243037896
18.007328,6.5913013714344055,0.04727147436694155
18.011371999999994,6.5371133488828255,0.04719491569928275
18.015468,6.478107067256382,0.04713613442812872
18.019563999999995,6.418314293654862,0.047069889685734695
18.023664,6.35740285337846,0.047015219444143816
18.027764,6.295151296627307,0.046986696580603754
18.031864,6.228867972776368,0.04698525093053246
18.035892,6.162473924025494,0.04698843244461336
18.039928,6.092269557974703,0.0470056242810559
18.044016,6.024523975073542,0.04698117513661421
18.048103999999995,5.950730741522704,0.04700086879339283
18.052192,5.871111307122053,0.04705008843219544
18.056284,5.788689497196433,0.04710434102157443
18.060368,5.7092915125956525,0.04713806676359226
18.064408,5.620932776920287,0.047232891311915076
18.0685,5.530668882594964,0.04733776220401924
18.072596,5.44018353846977,0.04745910011478448
18.076688,5.356089437369595,0.04757539812335045
18.08078,5.271319569194277,0.04767838026092055
18.084872,5.1883441347689825,0.04777969822318538
18.088967999999998,5.107495308793515,0.0478595843017158
18.093,5.030678249917836,0.04790728474006546
18.097088,4.953750466142221,0.04796569709208422
18.101175999999995,4.8720044232917425,0.04805345442579374
18.105259999999998,4.789471888466189,0.048132485253276694
18.109348,4.708168745215453,0.04818782126176292
18.11344,4.628205718439465,0.04820805145261371
18.117524,4.547124024988595,0.0482472151381089
18.121604,4.469066156862568,0.04825718498985326
18.125696,4.392691997586627,0.04826853295949415
18.129784,4.320681780110279,0.04821513594101714
18.133872,4.2533790968088585,0.04814437791875894
18.137964,4.1876493974575935,0.048092017978584325
18.142052,4.119338772381227,0.048024338558959566
18.146139999999995,4.056854348154671,0.04792027876687967
18.150223999999994,3.998512415927837,0.04775949503923298
18.154312,3.9394947166258616,0.04757524266816162
18.1584,3.8808091920236896,0.04735328045380518
18.162436,3.8235859264717367,0.04716003600320734
18.166484,3.763338835594944,0.04699762471293437
18.170564,3.702981019818216,0.04684143540762522
18.174596,3.6425124791415535,0.04668960577779841
18.178676,3.582941155339903,0.04653799656450264
18.182759999999995,3.5311011910380214,0.04632414223473142
18.186848,3.4761266765113654,0.04615517166320981
18.190936,3.4219386539597845,0.04599349382195442
18.194968,3.3712287740083178,0.0458376188834766
18.199051999999995,3.3207403438567202,0.045652727960002755
18.203143999999995,3.2663308715052706,0.04549902001503882
18.207172,3.2069924151790223,0.045393549282461046
18.211216,3.146424567277958,0.04531833774380632
18.215256,3.086078169176763,0.045209017087256075
18.219308,3.025953220875438,0.04506905061897861
