Time,Force,Position
26.789892,0.07422898297088555,0.0
26.793872,0.07310469224305678,0.0
26.797864,0.06996451796533462,0.0
26.801916,0.06402196816264212,0.0
26.805968,0.058190143259884496,0.0
26.809968,0.05135037658218016,0.0
26.814,0.04148678457963575,0.0
26.817992,0.03442556810206169,0.0
26.822016,0.028261568499499443,0.0
26.8261,0.021200352021925373,0.0
26.830184,0.01694151106932165,0.0
26.834224,0.013579886991729745,0.0
26.838204,0.011226204689084536,0.0
26.842192,0.008988871339321403,0.0
26.846188,0.007083712689362887,0.0
26.85024,0.0074158873891675,0.0
26.854296,0.014803654513598975,0.0
26.8584,0.025215246962870533,0.0
26.862448,0.04033999764001815,0.0
26.866536,0.055354023417230905,0.0
26.870576,0.06756567366947332,0.0
26.87466,0.07765071547188747,0.0
26.8787,0.0907595825991417,0.0
26.882732,0.10174184127656767,0.0
26.88682,0.11239192525418903,0.0
26.890912,0.12113685058185186,0.0
26.894948,0.1307789927845265,0.0
26.89904,0.14142907676214792,0.0
26.903076,0.1539843193897278,0.0
26.907108,0.1683339957673313,0.0
26.9112,0.17797613797000594,0.0
26.915228,0.18683178819760365,0.0
26.91932,0.19187712112528438,0.0
26.923352,0.19590888822507113,0.0
26.927388,0.1969168300000178,0.0
26.93148,0.19568743842520134,0.0
26.935508,0.18829404724782267,0.0
26.939536,0.17697961387059213,0.0
26.943624,0.1618548631934445,0.0
26.947704,0.14684083741623172,0.0
26.951784,0.13462918716398933,0.0
26.955868,0.1245441453615752,0.0
26.959944,0.11143527823432096,0.0
26.964028,0.100453019556895,0.0
26.968116,0.08980293557927364,0.0
26.972144,0.0810580102516108,0.0
26.976232,0.07141586804893614,0.0
26.980316,0.06076578407131477,0.0
26.984356,0.048210541443734885,0.0
26.988444,0.03386086506613136,0.0
26.99248,0.024218722863456693,0.0
26.996512,0.015363072635858982,0.0
27.000552,0.010317739708178304,0.0
27.004588,0.005272406780497625,0.0
27.008676,0.0021322325027754658,0.0
27.012708,0.0,0.0
27.016684,0.0,0.0
27.020772,0.0,0.0
27.02486,0.0,0.0
27.028844,0.0,0.0
27.032892,0.0,0.0
27.036988,0.0,0.0
27.04102,0.0,0.0
27.04506,0.0,0.0
27.049156,0.00022707385281694778,0.0
27.053248,0.00022707385281694773,0.0
27.057344,0.00022707385281694773,0.0
27.061384,0.00022707385281694778,0.0
27.065428,0.00022707385281694778,0.0
27.069468,0.0011641678073745325,0.0
27.073496,0.00942397468856013,0.0
27.077496,0.029725446346835466,0.0
27.081544,0.0629772173327452,0.0
27.085592,0.11053082179657345,0.009051530053024125
27.089644,0.1759751272383676,0.017558037178495495
27.093748,0.2609938425082164,0.025661992173673424
27.097808,0.36446830093123816,0.03361318437190885
27.101796,0.4872957193824449,0.041417750296958294
27.105776,0.6318241561115344,0.048957774594724425
27.10982,0.7953619604934714,0.05638446977001633
27.113844,0.9791385241030723,0.06365459621563153
27.117924,1.1788892123651478,0.07088094794434194
27.121968,1.393606083504751,0.07810226538780238
27.126068,1.6214947037718583,0.08535749740718611
27.130124,1.8640117081637415,0.09261718743180723
27.134168,2.1216112443860347,0.09988082128597711
27.138264,2.392271804835897,0.10718054323183486
27.142308,2.677787823263352,0.11448174052797708
27.1463,2.9856577916927667,0.12159039816618207
27.150388,3.303834421294103,0.12866016862627572
27.154372,3.6241262416697357,0.13566944044571908
27.158464,3.9388897828687637,0.1426249709953
27.1625,4.248102209540123,0.14946909156073382
27.166488,4.544352919208316,0.1472202981315048
27.1705,4.821361393748258,0.14551011019059013
27.174548,5.0777760990096645,0.14417365503290241
27.178592,5.314715701667421,0.14296097072779143
27.18264,5.530275043071564,0.14188478607079633
27.186692,5.718971514747622,0.14112858737927406
27.190668,5.88988801034565,0.1404510223562569
27.194704,6.036976879215966,0.1399777012702473
27.198732,6.169996782083766,0.139516550071441
27.202764,6.287829052274168,0.13907571552706138
27.206792,6.3959677159371795,0.1385612558294574
27.21082,6.488132254947716,0.13806924919846514
27.214856,6.568354436405565,0.13752308531142776
27.218836,6.639104461135892,0.13689496347815674
27.222888,6.697801403413597,0.13622425052651094
27.226984,6.735938829439366,0.13572389812008034
27.230976,6.7607058918888265,0.13530665004534123
27.23496,6.775924325737431,0.13495725608918208
27.239048,6.786423807735571,0.13463924323035176
27.243048,6.790532046708693,0.1344142594633361
27.247136,6.79430811098201,0.13421238535043187
27.251172,6.800554376080492,0.13399153073678352
27.25526,6.807144233554312,0.13379589680883794
27.259348,6.8131804665284585,0.13363655637851252
27.263432,6.8226948421027185,0.13344022177121112
27.267516,6.838035418526788,0.13314514674143937
27.271592,6.848103418600721,0.13290946128542686
27.275676,6.861416693799365,0.13260043398461072
27.279708,6.86934666774794,0.13235918922942277
27.283784,6.878948932871069,0.13205498357203146
27.287824,6.8836107963438655,0.13179010746266348
27.291916,6.889612776291414,0.13148360066755013
27.295944,6.88889133851414,0.13128591141417034
27.299976,6.886486191886779,0.1311046252846412
27.304056,6.879594960884357,0.13097901662366884
27.308136,6.869336312181758,0.1308828075066259
27.312168,6.863552330178686,0.13068314696050876
27.316196,6.855298147350447,0.13050154440458034
27.320284,6.843000779746889,0.13034549559607256
27.324324,6.826549502468077,0.13022229165550933
27.328428,6.8049363737390625,0.13015125488277698
27.332532,6.780742319284949,0.13010545731358975
27.336584,6.75946136525574,0.1300095366027955
27.340672,6.738966903201608,0.1299099632127659
27.344772,6.718029541547736,0.1298385142302902
27.348872,6.697103597569395,0.12981442079691094
27.35292,6.683809705866424,0.12972109255283815
27.356972,6.672653840288814,0.1296315206000517
27.36102,6.6671027257611435,0.1294617349619295
27.365112,6.659203552983776,0.12935036571995182
27.369208,6.653209538856366,0.12920953844746252
27.373264,6.644745323903791,0.12908566356414503
27.377296,6.642771659200635,0.1288223268791771
27.381332,6.635968317747083,0.1285857401109601
27.385424,6.630505092768282,0.12830770323370744
27.389472,6.624366100714339,0.12802395951953002
27.39356,6.612733082510391,0.12781163693967915
27.397592,6.602661630581063,0.12754192484012325
27.40162,6.593487395526747,0.1272597603524118
27.405708,6.587115535997402,0.12693551222679653
27.409792,6.584332543968103,0.12656499242659414
27.413876,6.584573377263645,0.12613840828473902
27.41792,6.580438851084063,0.12575858034443751
27.422008,6.573047632104239,0.1253968265514801
27.426104,6.561723953249028,0.12504992557150085
27.430084,6.546910714118173,0.12468685319718575
27.434176,6.52748924803679,0.12433449265716845
27.438268,6.505253988754907,0.12396999169461832
27.442368,6.479429861972974,0.12364701488774567
27.446464,6.454159359690715,0.12328417355072625
27.45056,6.426983698758498,0.12294849426821793
27.454652,6.402499688451317,0.12257867863694401
27.458748,6.372975969269402,0.12229747067839122
27.462844,6.3449145091377055,0.12201614379129251
27.466936,6.316742324106075,0.12174008259959078
27.471032,6.290364572824469,0.12144082030798453
27.475124,6.268583630817856,0.12107866196361751
27.479176,6.250170106511421,0.12068809839030153
27.483272,6.232653799079997,0.12028514595911051
27.487368,6.215702533823781,0.11989394741899505
27.491464,6.20166436899247,0.11945590306401205
27.49556,6.186396812586342,0.1190505698356246
27.499656,6.171583573455487,0.11866382531983351
27.503736,6.163272302249584,0.11818906924305209
27.507816,6.161130824268829,0.11765166989787505
27.511892,6.163143255963329,0.11708658767437678
27.515972,6.163815571183077,0.116559659468095
27.520004,6.16303704502814,0.11607893402681355
27.524096,6.161472026898126,0.11559741767992678
27.528176,6.156096691468195,0.1151684705481718
27.53222,6.151618572913275,0.11472788275194393
27.536204,6.15005355478326,0.11424389906462674
27.540148,6.151966679253357,0.11372743079706682
27.544144,6.15847661299845,0.11315603880010726
27.548192,6.167678197368576,0.1125582395321923
27.55224,6.179571432363739,0.11193477979452576
27.55628,6.189338058909073,0.11135531742498937
27.560324,6.19697807700458,0.11082111758623855
27.564368,6.204285920400283,0.11030936749401794
27.568416,6.210917996720842,0.10979153569360159
27.57246,6.21643140636652,0.10930199370259693
27.576504,6.2209368742372515,0.1088290828081416
27.580532,6.232165759832804,0.10826702452333536
27.584512,6.24194380405367,0.10775604291843292
27.588452,6.24981668962458,0.10727471458409363
27.592448,6.255784416545529,0.10681881407376058
27.596488,6.2673568945164195,0.10629960962382302
27.600524,6.281621023112345,0.10575377148709691
27.604608,6.300481960983266,0.10516073966564701
27.608644,6.327750025429097,0.10447358594990568
27.61268,6.356136756549811,0.10376555386284217
27.616712,6.379815953495594,0.10311817063959895
27.62074,6.403938050041118,0.10244669780957434
27.624776,6.423463337311649,0.10182511124664442
27.628812,6.441980682807231,0.10122397560386989
27.63284,6.459600811427802,0.10063585513185197
27.636872,6.477110215148437,0.10005386321011182
27.6409,6.49753271929398,0.09944038311199087
27.644936,6.522884207414319,0.09876756034365004
27.64902,6.549697954584878,0.09810396334353479
27.6531,6.577519643530384,0.0974326602781515
27.657188,6.605452057375825,0.09675387470422842
27.661272,6.627103953096182,0.09613047206759134
27.66536,6.647404314666256,0.0954943159347886
27.669448,6.662099925186388,0.09491026066732718
27.673488,6.676795535706522,0.0943258510525448
27.677516,6.686672887151791,0.09379821802520896
27.681552,6.698787571946823,0.09323281189425073
27.685592,6.707202664341874,0.09270181840847
27.689624,6.714499090062042,0.09219802134612666
27.693668,6.7206768491073285,0.09171457525172644
27.6977,6.728427592102769,0.09123230799460516
27.701732,6.7320358430984895,0.09080813941113944
27.705764,6.736652035869155,0.09037004649241517
27.709792,6.73868730291472,0.08994296492528948
27.713828,6.7370229775603026,0.08954566274074917
27.717864,6.7359122767055615,0.08911310310970263
27.721892,6.728521057725736,0.08872062878977871
27.725972,6.713619929046013,0.08839401358285316
27.730056,6.697477991115939,0.08804350815352921
27.734084,6.676063476835731,0.08771758970386526
27.73806,6.655767629230401,0.08737088668724974
27.742044,6.635028882025334,0.08704962148415107
27.74604,6.61586311877042,0.08673007114816185
27.750132,6.601294164790501,0.08637451678737912
27.75416,6.588630369460539,0.08600077339572464
27.758196,6.576863791005589,0.08562019922316937
27.762236,6.559946778775972,0.08530670478717167
27.766276,6.544602750496508,0.08499522375403226
27.770304,6.522646029392157,0.08474009674063787
27.774328,6.501586525162818,0.08447850076931453
27.778412,6.478511137383585,0.08424036420070778
27.78244,6.4603647335791505,0.083947541367213
27.786488,6.4430048217497955,0.08365532089312586
27.790484,6.42441551834562,0.08338704530776063
27.794528,6.408407140666549,0.0831090969201819
27.798576,6.394758238912705,0.08283625635105117
27.802624,6.385373971734054,0.08255121512993022
27.806724,6.378681355180436,0.08224941805809896
27.810704,6.373450997677038,0.08195863896826244
27.814752,6.367445565874095,0.08171434143069638
27.818708,6.36200517624636,0.08148641840803136
27.822652,6.356786236418494,0.08124314826370478
27.826652,6.347756979290711,0.0810328279849648
27.83068,6.340411431013019,0.08082013128411408
27.834772,6.33104999918543,0.08063067412330921
27.838816,6.321577842457907,0.08044765746410477
27.842868,6.316026727930239,0.08022402562212808
27.846864,6.310254163602699,0.0800144641361762
27.850904,6.309078408550154,0.07977349404015453
27.854984,6.308578420572751,0.07954245669136883
27.859016,6.311102257920185,0.0792761301239588
27.8631,6.311388761917859,0.07904822634098939
27.867136,6.311343091215727,0.07884151773866602
27.871168,6.31398907113863,0.07862044782722007
27.875204,6.3165243261616,0.07840662487688038
27.879296,6.315925030959795,0.07823471272179028
27.883384,6.3133098522080955,0.07808574532695979
27.887476,6.31439426585638,0.07791275922649435
27.891564,6.315146504804858,0.0777612784461162
27.8956,6.322732886378093,0.07754467240743623
27.89964,6.326508950651411,0.07735878347797494
27.903684,6.333541707724972,0.07717696053236964
27.907716,6.3461792158484736,0.0769562222927829
27.911808,6.35287979822223,0.07679509430041837
27.91584,6.3631692480960345,0.07661811182021322
27.919876,6.374245189944916,0.07644372181085557
27.923904,6.383083798444033,0.07630586047209559
27.927936,6.393938290493043,0.07614658892659232
27.931964,6.404460607842249,0.07600879821351447
27.936,6.412967041641562,0.07589304384059743
27.940028,6.422259967415953,0.07578134670724496
27.944056,6.429426284740515,0.07569788292122392
27.948092,6.436592602065077,0.07561441913520289
27.952128,6.443648194489704,0.07553793948195613
27.956264,6.449695845139384,0.0754723341796517
27.960296,6.455067728713922,0.07539654390126004
27.96438,6.46043961228846,0.07532047118680273
27.96842,6.458190861263164,0.0753048773074617
27.972452,6.451456025862809,0.0753098997482572
27.976484,6.441697365137614,0.07534761978043143
27.980524,6.435527571912465,0.07536922875323147
27.98462,6.428460561812305,0.07539467879027731
27.988712,6.4154566259624,0.07547905279184934
27.992744,6.409397557637187,0.07549349141288564
27.99678,6.4002039390872,0.07554752078657156
28.000812,6.392915479187171,0.0755862982432877
28.004848,6.3867456859620235,0.07560734974428406
28.008936,6.378670734086917,0.07564282881253624
28.01302,6.369244248061527,0.0756584363960356
28.017052,6.362055095385898,0.07563852357085522
28.021132,6.350158408535342,0.07565170362116813
28.025176,6.340388330134614,0.07563662716718644
28.02916,6.329831759758808,0.0756184952888446
28.033136,6.3183779725079905,0.0756043378679033
28.037172,6.309726560782144,0.07557135678595572
28.041196,6.306569175206303,0.07550806089940539
28.04524,6.306214165155433,0.075426425280705
28.049276,6.314266281679475,0.07528947471639491
28.053304,6.325907265703564,0.07513599646345102
28.057248,6.338556191502598,0.07497217543519251
28.061244,6.350529350226491,0.07479904027697105
28.065224,6.361716016975307,0.07462331484401265
28.069268,6.378839609473868,0.07439045059693529
28.073312,6.391144942897565,0.07419814359888983
28.07736,6.401201525295966,0.07398863543094986
28.08142,6.408787906869201,0.07377755090424902
28.08546,6.418279447092395,0.07355326105734539
28.089504,6.427660262415655,0.07333595384992923
28.093548,6.435590236364228,0.07315576765358603
28.097548,6.440385660088026,0.0730140912709727
28.101548,6.450675109961829,0.07284352627525612
28.105596,6.460853834935698,0.0726799734440108
28.1096,6.470811110109697,0.07252962817337413
28.113652,6.48558664435856,0.07234173870012146
28.117712,6.497670527982388,0.0721653950948105
28.121764,6.503141718781328,0.07203507011016352
28.12576,6.506929200730179,0.07190566402606026
28.12974,6.50511193162909,0.07181123862460609
28.133788,6.504191879403012,0.07171345968409668
28.13782,6.502374610301923,0.07161927022590761
28.141872,6.500335891400965,0.0715385622633727
28.145916,6.4953840720751,0.0714814583422114
28.149836,6.483598110124479,0.0714823462369461
28.153816,6.473717306823816,0.07146951031152282
28.15786,6.468211862998277,0.07144599332250814
28.161892,6.462152794673064,0.07145651677849298
28.165984,6.452283409047935,0.07149427196927402
28.170072,6.442524748322739,0.0715251014742569
28.174168,6.439600230222301,0.07149795125620655
28.178208,6.44048602942178,0.07144370964747103
28.1823,6.435767077571318,0.07142332463159451
28.186384,6.432277517295673,0.07137917205120971
28.190472,6.432819724119814,0.07129487325357416
28.194564,6.427757179894015,0.07124379579892888
28.198608,6.422583910768282,0.07119931171122439
28.202708,6.423236842492358,0.071108430177855
28.2068,6.423779049316499,0.07102433123307929
28.2109,6.427345081465482,0.07091045527393146
28.214992,6.432926997164357,0.07077776618396381
28.219088,6.4375009710882845,0.07065476427228264
28.223188,6.4411777281372,0.07053471232623848
28.227284,6.4496727442609805,0.07037872238886962
28.23138,6.4611915857096,0.07019146300507725
28.235472,6.475623527583126,0.06998290735792613
28.239572,6.48915825258164,0.0697788820562212
28.243664,6.504930310929916,0.069541929545309
28.24776,6.5246234114780455,0.06927325322913302
28.25186,6.542522078276151,0.06901029168233856
28.255952,6.552013618499344,0.06879572767526387
28.260048,6.55982144987245,0.06858154112818576
28.264084,6.570653106570394,0.06833748608026806
28.268176,6.579358154818511,0.06811981276371537
28.272268,6.583355668891699,0.06793082919190997
28.276356,6.588028950040028,0.06775142680407534
28.280448,6.596733998288146,0.06753475945032525
28.284484,6.602525946111359,0.06734127227921666
28.288516,6.608428618834505,0.06714145532041156
28.292612,6.6129911750829,0.0669712386486794
28.2967,6.610043821631397,0.06684252023653739
28.300788,6.6073179179797625,0.06670021955212513
28.304872,6.6075051147530335,0.06653668847307198
28.3089,6.606008602676216,0.06637251869988918
28.312928,6.607425191024303,0.06618762520064025
28.316968,6.6040235202975275,0.06603569831712514
28.321056,6.600732574470688,0.06587761690916408
28.325148,6.594639253118875,0.06573341079880625
28.329228,6.587537989992118,0.06559848089306315
28.333316,6.582341885515318,0.0654517169366206
28.337408,6.581853315213447,0.06527909256682032
28.341432,6.583159178661599,0.06510222898423926
28.34546,6.586259475859775,0.06492131753178229
28.349448,6.592383598382792,0.06471454198761242
28.353536,6.604112471955749,0.06448223697922574
28.35762,6.619086620653416,0.0642119482472893
28.36166,6.631258393826112,0.0639570694137328
28.365644,6.642643675023733,0.0636980618700926
28.369648,6.655934114871312,0.06343003671049813
28.37368,6.671461888068651,0.06313372486219009
28.377772,6.6940452536906205,0.06277834062285564
28.381808,6.719430994837558,0.062412487142255516
28.385844,6.743133027134409,0.06204684723832878
28.389844,6.765937842556246,0.06168424260978271
28.393892,6.788964107777954,0.06131345346476318
28.397976,6.812322547699466,0.06092246866591132
28.402056,6.8301869614709725,0.060547131243852165
28.406132,6.854996242767171,0.06012562182920807
28.410164,6.876327381463256,0.05970488355086728
28.414248,6.900682345484183,0.0592642621500172
28.41834,6.924361542429967,0.058815196978849446
28.422428,6.944673321675574,0.058361551485994215
28.42646,6.963633566770896,0.05788948216063803
28.430432,6.982028769691011,0.05740458028589976
28.434412,6.998064496685896,0.056910746054247605
28.4385,7.01151929795568,0.056417055816829625
28.442592,7.024187607250386,0.05591917835099225
28.44668,7.03808530811991,0.05540283339547291
28.450772,7.049291358364397,0.05489145879711751
28.45486,7.057129990908706,0.05437337310316425
28.458896,7.062952739903124,0.05387173856751199
28.462932,7.064289404522482,0.053374330084364006
28.467016,7.063155868316675,0.05286611093582738
28.4711,7.062022332110867,0.05235701629188877
28.475188,7.056070536830194,0.05186888572579673
28.47928,7.051126683324469,0.05137251779070514
28.483324,7.052009030668555,0.0508465066661994
28.487412,7.040231034538071,0.05037968118673461
28.491504,7.029018080582796,0.04992733911706515
28.4956,7.012986867552659,0.0494956194664525
28.499692,6.990232236797698,0.04908680458881692
28.503788,6.965240272692974,0.04869941441822986
28.507884,6.934089933038634,0.0483531920312532
28.511916,6.895884000959668,0.04804889216857828
28.516,6.848828042706053,0.047786258025227644
28.520084,6.794716492027809,0.04756520937481182
28.524168,6.736351724449909,0.04738061274590559
28.528256,6.674963131547169,0.047211208702999496
28.532348,6.607748337794619,0.04706571807030361
28.536384,6.5362803271424115,0.04695585787357486
28.54042,6.462685708040375,0.046861991317612914
28.544456,6.387750972463589,0.04679233583479488
28.548604,6.311254670612182,0.04675907527308942
28.5527,6.231734543435934,0.046743477747498895
28.556732,6.149301315834781,0.04673971314011434
28.56076,6.0637335380088535,0.04675974043779746
28.564792,5.971220892658233,0.046817432227187164
28.568824,5.881621347732519,0.04686426095324116
28.572852,5.791456760631598,0.04688665719435664
28.576936,5.697371131330823,0.046929641726945776
28.580968,5.6088902530799905,0.046956496103755796
