Time,Force,Position
6.145168,0.05866090052129245,0.0
6.147556,0.05572763421509727,0.0
6.149935999999999,0.05228251122970441,0.0
6.152332,0.04906331764015021,0.0
6.154719999999999,0.04654936021453567,0.0
6.157103999999999,0.04426133218475979,0.0
6.1595,0.04169376490126348,0.0
6.161887999999999,0.0400573631775455,0.0
6.164283999999999,0.03655863033427087,0.0
6.16668,0.03198896230435771,0.0
6.169067999999999,0.029421395020861402,0.0
6.171451999999999,0.024991496617808456,0.0
6.173848,0.019350893401256772,0.0
6.176235999999999,0.015572621304261729,0.0
6.178619999999999,0.014727615513461854,0.0
6.181016,0.011880508976245131,0.0
6.183399999999999,0.009173172065888616,0.0
6.185784,0.007536770342170633,0.0
6.188179999999999,0.006040138245312859,0.0
6.190567999999999,0.004543506148455085,0.0
6.192948,0.00197593886495878,0.0
6.195343999999999,0.0014104723278793268,0.0
6.197731999999999,0.0007052361639396634,0.0
6.200116,0.0007052361639396634,0.0
6.202511999999999,0.0,0.0
6.204899999999999,0.0,0.0
6.207284,0.0,0.0
6.209679999999999,0.0,0.0
6.212067999999999,0.0,0.0
6.214452,0.0,0.0
6.216856,0.0,0.0
6.219244,0.0,0.0
6.221627999999999,0.0,0.0
6.224024,0.0,0.0
6.226412,0.0,0.0
6.228795999999999,0.0,0.0
6.231191999999998,0.0,0.0
6.23358,0.0,0.0
6.235959999999999,0.0,0.0
6.238359999999998,0.0,0.0
6.240748,0.0,0.0
6.243127999999999,0.0,0.0
6.245524,0.0001461576564988226,0.0
6.247912,0.002946042365472396,0.0
6.250292,0.005606157447585759,0.0
6.252692,0.013201639582311145,0.0
6.255079999999998,0.023870157650091914,0.0
6.25746,0.033607510158094364,0.0
6.259852,0.04376417154667744,0.0
6.262236,0.05392083293526052,0.0
6.264615999999998,0.06221516320428695,0.0
6.267011999999999,0.07004296276448962,0.0
6.269395999999999,0.07814840572054343,0.0
6.271779999999998,0.08727566617712341,0.0
6.2741919999999975,0.10589778197085147,0.0
6.276576,0.1377394153408409,0.0
6.278955999999999,0.18266079666023144,0.009055468357346627
6.281352,0.2395909907423846,0.017927277105244555
6.283735999999999,0.31095140721429787,0.02634923724090144
6.286115999999998,0.39422808865035674,0.03459643206960653
6.288531999999998,0.4847652072516695,0.0430066681595352
6.2909159999999975,0.5853562596975712,0.05138491843534147
6.293296,0.698648585010898,0.059590373972133154
6.295692000000001,0.8188292604371413,0.06776072057247547
6.298076,0.9463175948568816,0.07595865238241856
6.300471999999997,1.0731051852844518,0.08432363590353949
6.302867999999998,1.2038478595187434,0.09272449290919006
6.305255999999998,1.345855172411122,0.10106677144825936
6.3076360000000005,1.4994992110139265,0.10930844559317875
6.310039999999999,1.6638488097673774,0.11754299749692917
6.312427999999999,1.8442114227764248,0.12568645105547244
6.3148079999999975,2.041287794033239,0.13354391276708477
6.317203999999999,2.24665210752944,0.14129720749383234
6.319587999999998,2.461377194309538,0.148792987858709
6.321968,2.670519079446704,0.15612942963585816
6.324371999999999,2.8658370425297948,0.16339803306335982
6.326759999999998,3.045468752439251,0.1615948872822653
6.329140000000001,3.214629115481408,0.15984294995142537
6.331543999999999,3.367544146842491,0.158515283146793
6.333931999999999,3.507658969507894,0.1573169191154654
6.336311999999998,3.638790793515346,0.15598243404023743
6.338716,3.758146122185513,0.15470727666040332
6.341104,3.859299344398563,0.15376994080357817
6.343483999999998,3.9530051379912554,0.1528677984046724
6.345888,4.045082813747738,0.1518810460743728
6.348272,4.139024716481647,0.15062553211058846
6.350651999999998,4.231385723207588,0.1492331049461845
6.353052,4.312901400156023,0.1478830863942934
6.355435999999999,4.380126624341558,0.1466427182649298
6.357815999999998,4.436833279831549,0.14533503099908493
6.36022,4.47692251658813,0.14408686327808873
6.362608,4.498669877260733,0.14312116097510663
6.364987999999999,4.509617234126202,0.14226793744177027
6.367384,4.510321769834111,0.1416603242681162
6.369767999999999,4.507114651847804,0.1412120496821896
6.372151999999998,4.5040926294587305,0.14086736999167357
6.374547999999999,4.50805340083906,0.14047018421053323
6.376935999999999,4.506844591883429,0.14033196909657272
6.3793159999999975,4.506891813711673,0.14026720112709465
6.38172,4.50740367039087,0.1402839543646673
6.384108,4.510848793376262,0.14023052591431528
6.386487999999998,4.519648592294846,0.1400227188558902
6.388883999999999,4.535060993788368,0.1395453124849403
6.391271999999999,4.544701306325983,0.13907598059105333
6.393651999999998,4.547126507668721,0.13862370852581865
6.396047999999999,4.538797031174697,0.13836543645831303
6.398431999999998,4.5232977694561685,0.13823398348501437
6.400816000000001,4.509241529976614,0.13809967415966104
6.403219999999999,4.496069234228596,0.13801211141011627
6.405603999999999,4.482011098891173,0.13806058289293285
6.407987999999998,4.468789685457043,0.13822266754438894
6.410383999999999,4.456591985381308,0.13842107687329325
6.412771999999999,4.447420099410385,0.13860341840859572
6.415152000000001,4.437456817506544,0.13879283945168785
6.417547999999998,4.424979578177088,0.1390184563321284
6.4199319999999975,4.4136204958625145,0.13914479999806173
6.422312,4.391786274964901,0.13944754418932917
6.424708000000001,4.37093044145531,0.1396756613612085
6.427096000000001,4.346769254587187,0.13995901850961734
6.429475999999999,4.3240983117862815,0.14017000401403648
6.431872,4.3007285208510755,0.14044226655161238
6.43426,4.273167536967933,0.14089580970152393
6.436639999999999,4.242718612748968,0.14154557540047255
6.439036,4.216458985620072,0.14220492934430878
6.441419999999999,4.192386554834827,0.14292190484643252
6.443799999999998,4.176834383714446,0.14344061068758274
6.446195999999999,4.16421547890026,0.14388439050250718
6.448583999999999,4.149454703712799,0.14439634317166353
6.450964000000001,4.1393969781524715,0.14473294346196275
6.4533799999999975,4.131528344793665,0.14493433579628837
6.455768000000001,4.125429494755797,0.14504074505974276
6.458148,4.120261810277708,0.14512730477725608
6.4605440000000005,4.116304830613117,0.1451666658355819
6.462928,4.112440398747144,0.14526218007574737
6.465307999999999,4.112393176918901,0.14533070659677572
6.467723999999999,4.112019194008694,0.14549285911816368
6.470107999999998,4.122399888935247,0.14544413240343967
6.472488,4.139578282033968,0.14522753752263357
6.474883999999998,4.161831811812162,0.14486444128452583
6.4772719999999975,4.183293945657438,0.14451358850778603
6.479656,4.203592596517457,0.14413959767770618
6.482051999999998,4.22379869957886,0.143706210317008
6.4844399999999975,4.2469852907747,0.14312625615418886
6.48682,4.270730960477982,0.14249806987883593
6.489216000000001,4.292893838315427,0.14188271180744957
6.491604000000001,4.308910644286762,0.14144733037607984
6.493983999999999,4.324088832496936,0.1410904733563399
6.496384000000001,4.343271222199943,0.14062743382507836
6.498768,4.360683828582011,0.14027041659510597
6.501151999999999,4.378608291643275,0.13993840812758043
6.503548,4.3954618195179025,0.13963764691361763
6.505932,4.414736757019527,0.13925253774610266
6.508315999999999,4.431357967468676,0.1389170092077466
6.510712,4.448957565305847,0.1384952389538942
6.5131,4.464602284224844,0.13805876575529294
6.515483999999999,4.4792232897854465,0.13758665685518087
6.51788,4.487326136427599,0.13725372857266635
6.520268,4.491424781576921,0.13702498821344236
6.5226479999999984,4.497385757845796,0.1367629866384881
6.525043999999999,4.501996259674314,0.13655425721266357
6.527431999999999,4.508189553368667,0.13633302973642875
6.529811999999998,4.518107509302134,0.1360421379219765
6.532207999999999,4.529748026728298,0.1357333077885122
6.534595999999999,4.542599248967961,0.13538900924915026
6.5369759999999975,4.556009549715065,0.13499712106928155
6.539371999999998,4.572120799342886,0.13449810218860217
6.541759999999998,4.588419040425811,0.1339257096261054
6.5441400000000005,4.6023430937099805,0.1333774918915606
6.546535999999998,4.613101563262478,0.13285205461702018
6.548927999999998,4.621066536135641,0.13237989183035587
6.551308000000001,4.6322443145687195,0.13182541882005783
6.553703999999998,4.639138352255242,0.13138427698273938
6.556091999999998,4.648406577740522,0.1309284212086562
6.558476000000001,4.6601887606514145,0.13045092761106014
6.560871999999998,4.674764440241643,0.1299277872416623
6.563259999999998,4.688408954272092,0.1294183415238765
6.565644000000001,4.705266273862458,0.12882625852471757
6.568039999999998,4.719050557519767,0.12830096202829425
6.570427999999998,4.727387617445268,0.12786494124577816
6.572812000000001,4.738146086997767,0.12735210035806108
6.575207999999998,4.748392699871067,0.12682447696858237
6.577599999999999,4.754635111251533,0.12638646285321217
6.579980000000001,4.755150759646469,0.12605540259300038
6.582375999999998,4.75138266729485,0.12583193258611636
6.584767999999999,4.751990863488404,0.1255538623293757
6.587148000000001,4.750596958935541,0.12531706852468355
6.589543999999998,4.746781644755679,0.1251546076567031
6.591931999999998,4.742966330575818,0.12499190183600699
6.594312,4.739942412328876,0.12482408174189046
6.596711999999998,4.734916393335516,0.12469774143466487
6.599103999999999,4.726957108035961,0.12462852736641804
6.6014839999999975,4.721279462736544,0.12449491812766031
6.603879999999998,4.711365298518815,0.12440565322914117
6.606267999999998,4.696655536875334,0.12440469179819251
6.6086519999999975,4.679943674485436,0.12444340858004783
6.611047999999999,4.665745769521154,0.12445807242618805
6.613439999999999,4.649917850862791,0.12454228551332693
6.615819999999998,4.637162968137484,0.12456007934135152
6.618215999999999,4.628504834703628,0.12454506599610078
6.620607999999999,4.62035855794897,0.12454657661776598
6.622987999999998,4.610861806753952,0.12459597381114938
6.625383999999999,4.602435990745574,0.12461932624376482
6.627771999999998,4.59652413216281,0.12461983239180935
6.630155999999998,4.591962748020404,0.12457170947965768
6.632551999999999,4.579952039399771,0.12464706665553557
6.634943999999999,4.570455288204754,0.12469832206142129
6.637323999999998,4.563612264062212,0.12471480498131546
6.639719999999999,4.55406829103895,0.12483090073443459
6.642111999999999,4.5482489802548045,0.12488332031149518
6.644488000000001,4.548296202083046,0.12482037904992362
6.646883999999998,4.551788546896683,0.12471893928959973
6.6492679999999975,4.553139021337042,0.12467009683789164
6.651648,4.560076489136072,0.12453007673838537
6.654064,4.569155827308378,0.12433645611606034
6.656447999999999,4.577443769547766,0.12414707569784415
6.658827999999998,4.584940315854236,0.12396264944838893
6.661223999999999,4.593275479921867,0.12371180461649027
6.663611999999999,4.604823449549413,0.1233870010806119
6.6659919999999975,4.6158595624977625,0.12304738963676086
6.668383999999998,4.624241948393635,0.12274191527591574
6.670771999999998,4.634626435035926,0.12239675041295105
6.673152,4.645150691305077,0.122041724003183
6.675548000000001,4.660098457947643,0.12158122447853592
6.677932,4.676908555709765,0.12109443518336943
6.680307999999998,4.699445416457417,0.12051050355753969
6.682703999999999,4.722401586085651,0.11990003310419707
6.685091999999999,4.745125438288406,0.11925391825375933
6.687468000000001,4.771621174558518,0.11848965298015099
6.6898800000000005,4.793600852656599,0.11778853846278557
6.692264,4.809713998142289,0.11719239992159454
6.694643999999999,4.819588523963253,0.1166700522182387
6.697051999999998,4.83267585534413,0.11607467067100564
6.699436,4.841898754859034,0.11554813495572867
6.701815999999999,4.85098188474708,0.11503323273070458
6.704212,4.860065014635124,0.11451721934317556
6.706595999999999,4.869427683776888,0.11398149589819717
6.7089719999999975,4.877160339224573,0.11351162547480377
6.7113679999999984,4.8778157572463705,0.11317631415795504
6.713755999999998,4.8776797793352475,0.11284472244900465
6.7161360000000005,4.877683571050987,0.11250159489403472
6.718527999999997,4.878758297953365,0.11213753332023492
6.720916000000001,4.879833024855741,0.11177398877370055
6.723296,4.873970283959089,0.11153055968587142
6.7256959999999975,4.86624521194288,0.11131175590885924
6.728084000000001,4.857588974366893,0.11110540795362712
6.730464,4.848792967164046,0.11090897861871933
6.732867999999998,4.840648586267258,0.11072037724104863
6.735252000000001,4.833295601303387,0.11052997142063002
6.737632,4.830877983392128,0.11026260241257978
6.740024,4.83432689809326,0.10990759467872019
6.742412,4.841500475033503,0.10950466305196647
6.744791999999999,4.848534282346888,0.10911479880711755
6.747192,4.854497154473634,0.1087438053809007
6.74958,4.858597695480824,0.10839428682041713
6.751959999999999,4.862278927607432,0.10807362414921842
6.754356,4.864469915666821,0.10780430259047112
6.756739999999999,4.86815114779343,0.10748291573717746
6.759119999999998,4.876627977345789,0.10709181277817882
6.761524,4.882962936524873,0.10674336760216815
6.763907999999999,4.891020457196653,0.10638286393812972
6.766287999999998,4.893211445256042,0.10611046051673449
6.768687999999999,4.893260562942155,0.1058806321299439
6.771071999999998,4.896242946934462,0.10560463042961876
6.773463999999999,4.902949993165883,0.1052847514741082
6.77586,4.906584003464249,0.10501923603927125
6.778243999999999,4.908215913016197,0.10478705177671194
6.780623999999998,4.907705952194868,0.10459800822660864
6.783028,4.902912250626986,0.10449468093554665
6.785416,4.890761772379495,0.10453090275361547
6.787795999999998,4.87488663189289,0.10460966399293611
6.790187999999999,4.861525448831899,0.10467356201556687
6.792575999999999,4.84709333058427,0.104756962939079
6.794967999999999,4.835734248269697,0.10478780656062585
6.797364,4.8283793674479565,0.10475494394163774
6.799752,4.827310328119186,0.10460913135038187
6.802127999999998,4.827591763230775,0.1044229271236231
6.804532,4.825451788715367,0.10429685106704185
6.80692,4.826245080506155,0.10413115274343378
6.809299999999999,4.830623264909195,0.1039343628911144
6.811691999999999,4.834070283752457,0.10374847480662941
6.814075999999998,4.84338383520811,0.10348119268208224
6.816471999999999,4.856422048902876,0.1031730446354671
6.818875999999998,4.869040953717061,0.10289464017774605
6.8212639999999976,4.87751588741155,0.10268773443908985
6.823644,4.887713382598738,0.10246890284139856
6.826047999999998,4.8976313385322054,0.10226849687425578
6.828435999999998,4.909411625585229,0.10204756124406622
6.830816,4.921052143011393,0.1018329798996543
6.833211999999998,4.938559193049947,0.10153269209465257
6.835599999999998,4.956578099767699,0.10125130906084887
6.83798,4.96994117868656,0.10102390565452503
6.840383999999999,4.98316448797856,0.10080683174916964
6.842771999999998,4.997039423576618,0.10060192035506897
6.845152000000001,5.009563884734317,0.10043976331522965
6.847543999999997,5.014731569212406,0.10040874055005711
6.849932000000001,5.020550879996554,0.1003875634105926
6.852312,5.0314453274601725,0.10028803134043826
6.854715999999998,5.03726463824432,0.10026770590463684
6.857103999999998,5.039359286789353,0.1002864802435183
6.859484,5.038380899401331,0.10035425075091019
6.861887999999999,5.035260641640034,0.10046045604790904
6.864271999999998,5.028415721639622,0.10060576146650856
6.866652,5.0218503408929305,0.10073180304085916
6.869047999999998,5.016355895332878,0.1008388796929119
6.871435999999997,5.013282859399822,0.10088722551981673
6.873816,5.012211924213184,0.10090656724524476
6.876212000000001,5.0094184275338485,0.10093570568013846
6.878596,5.008115174921731,0.10091668783824266
6.880975999999999,5.0040184256302815,0.10092703568246364
6.883383999999998,5.0002012155925515,0.1009180933884713
6.8857680000000006,4.997315171114599,0.10089943212450769
6.888147999999999,4.993497961076868,0.1008907260455976
6.890548000000001,4.983953988053608,0.10095218521629373
6.892932,4.97226814465707,0.10105380710671327
6.895315999999999,4.960582301260534,0.10115823215359152
6.897708,4.947965292304218,0.10127250264050007
6.900091999999999,4.934556887414983,0.10138324653321289
6.902488,4.922359187339247,0.10146490562548652
6.904891999999999,4.912023818383069,0.1015271719862965
6.907275999999998,4.9056926509197245,0.10152972425456917
6.909656,4.901503353829658,0.10149207765957464
6.912051999999997,4.900387092672645,0.10140457755398419
6.914436,4.898991292261912,0.10133668084863987
6.916815999999999,4.897875031104899,0.1012491859948216
6.919207999999999,4.891543863641555,0.10125072196043633
6.921595999999999,4.885632005058791,0.10122239208344871
6.923992,4.880651312035805,0.10118406058326829
6.9263879999999975,4.881397381998349,0.1010779683686666
6.928772,4.88442509196103,0.1009240562182046
6.931151999999999,4.887452801923711,0.10077034695011214
6.933548,4.894624483006087,0.10055146033568459
6.935931999999999,4.903938034461739,0.10029518682549701
6.938328,4.92046859297014,0.099925868933547
6.940727999999998,4.938629165172621,0.09949867631920502
6.943115999999998,4.960421851815599,0.09898550588795875
6.945496,4.980631746592739,0.0984703149596675
6.947899999999999,4.993764403943992,0.09805711975070616
6.950283999999998,5.008107766108743,0.09761784320906541
6.952664,5.022730667527215,0.09716013028005656
6.955059999999998,5.037633108199406,0.09668718122136852
6.957444000000001,5.049602282565403,0.09625328178932188
6.959823999999999,5.058777960252065,0.09584670375219043
6.962227999999998,5.070514817192583,0.09537781182750443
6.964615999999998,5.081180738946464,0.09492719641794446
6.966996,5.096130401446899,0.09440172170195091
6.969388,5.10693609282764,0.09393911854273848
6.971776,5.116019222715684,0.09348360413239734
6.974168000000001,5.11830465443156,0.09311189087467475
6.976563999999998,5.119658920587657,0.09275028501093094
6.978951999999998,5.120221790810837,0.09238743620858145
6.981328,5.116920229168042,0.09206906677324049
6.9837240000000005,5.112687501965469,0.09175953230786034
6.986112,5.10631290438962,0.09148633200814692
6.988504000000001,5.099007141253992,0.09122036818829565
6.990907999999999,5.093563709237921,0.09094020190174328
6.993295999999999,5.093986809834241,0.09059803965623144
6.995675999999998,5.100695751923531,0.09016324445883948
6.998071999999999,5.103400492519987,0.08977581104283265
7.000455999999998,5.105453606810386,0.08937784399433729
7.002840000000001,5.106715325167865,0.08897987960158593
7.005235999999998,5.10611471240579,0.08859386381445365
7.007623999999998,5.108307596323048,0.08818569596686676
7.01,5.106356509120614,0.0878341622203472
7.012396000000001,5.107618227478095,0.08743532988502097
7.014784000000001,5.108879945835574,0.0870387454662117
7.017163999999999,5.115356570499387,0.08657181561173893
7.019571999999998,5.122764360722977,0.0860961617213927
7.021955999999998,5.131382855760067,0.08559373176257845
7.024336,5.138511106729938,0.08513382165143438
7.026732000000001,5.148712393632864,0.08463813486048653
7.029116,5.159705076468708,0.08414460605680178
7.031515999999998,5.167764492998357,0.08367818081878896
7.033907999999999,5.175032513595088,0.08321169815597464
7.036295999999998,5.183091930124738,0.0827479615169681
7.038676000000001,5.186215979601775,0.08233667390384802
7.041071999999998,5.185335827585978,0.08197191961110539
7.043459999999998,5.1829654315029625,0.08164935983645445
7.04584,5.183528301726142,0.08129811085786652
7.0482359999999975,5.184463259001658,0.08097583189913522
7.05062,5.185770303329514,0.08068368980469452
7.053015999999998,5.193083649896619,0.08033034987898088
7.05542,5.200396996463724,0.07997930366449647
7.057803999999999,5.209712443777246,0.07960716836557556
7.060183999999998,5.212881819224656,0.07930405842839847
7.062575999999998,5.2148404898585685,0.07902513331115586
7.064963999999998,5.212655189372787,0.07879507108823691
7.067344,5.214194551126118,0.07854402438959429
7.069747999999999,5.2173167047452855,0.07829976182520189
7.072131999999998,5.224070972804948,0.07798900609161927
7.074512,5.226541500118058,0.07773427164014338
7.076904000000001,5.22822063149825,0.07747604464830046
7.079292000000001,5.234695360304194,0.07718311024068278
7.081687999999998,5.239959384296639,0.0769125991945807
7.084083999999999,5.245875034595142,0.07665491096662057
