Time,Force,Position
2.850795999999999,0.26332773160030953,0.0
2.853192,0.25704189010733863,0.0
2.85558,0.2518269838010062,0.0
2.857975999999999,0.24875394786795083,0.0
2.860372,0.23809181782980868,0.0
2.862755999999999,0.22542758704524968,0.0
2.865136,0.21197196032777255,0.0
2.86754,0.19744539842365688,0.0
2.869928,0.18049742689254375,0.0
2.8723080000000003,0.1712783190933776,0.0
2.8747039999999995,0.15870663610743563,0.0
2.8770919999999998,0.14478447868113473,0.0
2.879472,0.1331439612549711,0.0
2.8818719999999995,0.1179185512165544,0.0
2.8842599999999994,0.10869944341738826,0.0
2.88664,0.10348453711105583,0.0
2.889035999999999,0.09840940043158358,0.0
2.891423999999999,0.09161170225941494,0.0
2.893804,0.08279894123938368,0.0
2.896208,0.07399914232079816,0.0
2.898591999999999,0.0650466116739067,0.0
2.9009719999999994,0.05809618177343209,0.0
2.9033680000000004,0.05207691743273579,0.0
2.905756,0.04714155038012377,0.0
2.9081519999999994,0.04391578271876244,0.0
2.9105480000000004,0.041621180617179426,0.0
2.912936,0.03918680888873621,0.0
2.915315999999999,0.036752437160293,0.0
2.917712,0.0345976046855702,0.0
2.9201,0.029509505904652233,0.0
2.92248,0.025632111937233,0.0
2.92488,0.021894487596673985,0.0
2.927263999999999,0.016946158442616224,0.0
2.9296480000000003,0.014791325967893428,0.0
2.9320439999999994,0.01063439274675378,0.0
2.9344279999999987,0.005406524338975599,0.0
2.936807999999999,0.00232052630447448,0.0
2.939216,0.0012366290163902133,0.0
2.9415999999999998,0.0012366290163902133,0.0
2.9439840000000004,0.0010838972880842668,0.0
2.94638,0.0010838972880842668,0.0
2.9487679999999994,0.0010838972880842668,0.0
2.951148,0.0010838972880842668,0.0
2.953543999999999,0.0,0.0
2.955931999999999,0.0,0.0
2.958316,0.0,0.0
2.960711999999999,0.0,0.0
2.963099999999999,0.0,0.0
2.965496,0.0,0.0
2.967891999999999,0.0010838972880842668,0.0
2.970279999999999,0.0021677945761685337,0.0
2.9726599999999994,0.005393562237529862,0.0
2.975059999999999,0.00969026508552972,0.0
2.977447999999999,0.01813093905322349,0.0
2.9798279999999995,0.031506980073529284,0.0
2.9822239999999987,0.04180998516077969,0.0
2.9846120000000003,0.054254860621307174,0.0
2.986991999999999,0.0646976353354178,0.0
2.989388,0.07900484191550192,0.0
2.991776,0.09317227886872581,0.0
2.9941560000000003,0.10920204694150636,0.0
2.9965519999999994,0.1249522757605665,0.0
2.9989399999999997,0.1410745916319641,0.0
3.001336,0.1567303767945379,0.0
3.0037319999999994,0.17494544535310017,0.0
3.0061199999999992,0.19646397141232588,0.0
3.0085,0.22580201314424642,0.0
3.010895999999999,0.26417027536236043,0.0
3.01328,0.31198806694724857,0.007150682461571083
3.0156639999999992,0.36337589318507485,0.014658874964676896
3.01806,0.42221114804325843,0.02221413379701537
3.0204439999999995,0.4863519611485223,0.029806052518972278
3.022839999999998,0.5550069365679483,0.037560672540438614
3.025236,0.6269653694880377,0.045327542986409675
3.0276239999999994,0.6966402665501207,0.05343979508613612
3.030004,0.7783258722328354,0.061352352995189756
3.032404,0.8638740139236545,0.0692815917885667
3.034787999999999,0.9562179579287728,0.07733067921640467
3.037172,1.0450676612623861,0.08583500663769228
3.039567999999999,1.1421561891492746,0.09429897918402105
3.041952,1.2453416712161618,0.10275228889430618
3.044331999999999,1.3561143515302663,0.11119510013272377
3.0467319999999987,1.473450516733193,0.11958412745485889
3.049116,1.6000983375339028,0.12774440340865123
3.051511999999999,1.7282836242300752,0.13579927746057163
3.053915999999999,1.8513031223060272,0.14392703807319318
3.056303999999999,1.9653396217240289,0.1520300175902187
3.0586839999999995,2.068902878416861,0.16014779791237804
3.0610799999999987,2.161294044250223,0.16117058912909454
3.0634680000000003,2.250241982956061,0.1617575212778408
3.065847999999999,2.3310908667354835,0.16229472032791198
3.068244,2.403700925961631,0.16281285279132543
3.070632,2.4727279884333946,0.16307334099707754
3.0730120000000003,2.5340280830310804,0.1633615080638327
3.075415999999999,2.5941193686731365,0.16329010116290502
3.0778039999999987,2.6436429679335367,0.16355560087030133
3.080183999999999,2.6875342478648934,0.16384688283652815
3.08258,2.729285553280842,0.1639255560213117
3.084968,2.778023444181932,0.1631907446911337
3.087351999999999,2.818290193104269,0.1624555229534242
3.0897559999999995,2.8494341737417965,0.16170424657450455
3.092139999999999,2.874109113146987,0.16085294266717975
3.0945199999999997,2.8911968543049604,0.16005074925304758
3.096924,2.899998549081415,0.15940400430707335
3.0993119999999994,2.9048432641932793,0.15884442021439554
3.101692,2.9146233463577556,0.15808395575889464
3.104096,2.925147602626906,0.15740165350782453
3.106484,2.9356246370678143,0.1568073036065802
3.1088639999999987,2.948196320053756,0.1561982893140378
3.11126,2.962071255651814,0.1556103112131251
3.1136479999999995,2.9752473431155706,0.15510964971062882
3.116028,2.989354596139106,0.15457341893284268
3.118423999999999,2.999457647669807,0.15421370756897504
3.120811999999999,3.010259547334809,0.15375940441830416
3.1231919999999995,3.0191065680816376,0.15329647215967204
3.1255879999999987,3.029071745843348,0.152673351829936
3.127972,3.0369422750600257,0.15205343750726696
3.130355999999999,3.0433697820377255,0.1514574827275514
3.132752,3.0415093467760386,0.15125163434716682
3.1351359999999997,3.039741459312969,0.1511234899754823
3.137516,3.0388575155814337,0.151059139968213
3.13992,3.037646810767934,0.1511283159198258
3.142308,3.03895006338005,0.1511376226562135
3.1446880000000004,3.041416798977421,0.15117523613892433
3.147079999999999,3.043743764947932,0.15123109067021076
3.149467999999999,3.0432772342391083,0.15137900663325243
3.151864,3.0447202564780844,0.15137182168180652
3.154259999999999,3.047141666105082,0.151238861857287
3.156647999999999,3.0477479664407663,0.15107186541376974
3.159032,3.046259618231416,0.15090868633477822
3.161424,3.0474722189027843,0.15057828946452398
3.163812,3.050547150693708,0.15019090748502092
3.166196,3.056695118417689,0.14967662297797504
3.1685920000000003,3.063354942820866,0.14918925184787948
3.17098,3.0685245231568246,0.148797777335794
3.173359999999999,3.0782101616648143,0.14828494368627645
3.175763999999999,3.0914806927850584,0.1476733892279106
3.178151999999999,3.103260979838082,0.14716363852495923
3.1805319999999995,3.1141101013313275,0.1466755518144232
3.182927999999998,3.123795739839318,0.14615440332225627
3.1853160000000003,3.1321781257351917,0.14561722180317446
3.187695999999999,3.137255158272533,0.14514175546613467
3.1900959999999987,3.1406096293171775,0.14471335166839638
3.19248,3.1380975677494325,0.1445013798002317
3.194863999999999,3.1375876069281037,0.14421142319905036
3.19726,3.1377292724128334,0.14392799257037447
3.1996439999999997,3.1362409242034834,0.1437639575828395
3.2020280000000003,3.1383374686063865,0.14350189205165578
3.2044239999999995,3.143599596740962,0.14319435649732504
3.2068119999999998,3.1472317111814583,0.14300236125351107
3.2091960000000004,3.150584286368234,0.14284792069878208
3.211599999999999,3.1499326600621766,0.14284173874834594
3.213984,3.1484896378232006,0.14284628444564215
3.2163679999999992,3.145463823718388,0.1428722123886257
3.218767999999999,3.1485840814796866,0.14266422564540315
3.221155999999999,3.14877107293479,0.1425575046359086
3.2235359999999997,3.148166668456976,0.14246133418624138
3.225932,3.148261112113462,0.14228293220580504
3.22832,3.1520802180090612,0.1420007368703142
3.230699999999999,3.1601358428229718,0.14164135926346555
3.233103999999999,3.170705425062497,0.14123704305442566
3.235491999999999,3.1872813095412726,0.1406318342036019
3.237876,3.2038571940200486,0.14002880452548058
3.240271999999999,3.2269984592455154,0.1391494907766776
3.242659999999999,3.249348328538064,0.13829682311817817
3.2450399999999995,3.268764931524418,0.13753165109290524
3.2474359999999987,3.287529908204714,0.1367556157230653
3.2498240000000003,3.305363719325231,0.1360272940094492
3.2522079999999995,3.3228254433934112,0.13527194414599694
3.254612,3.3405667067153115,0.13447547401504892
3.256995999999999,3.3560263300370754,0.13377505538746381
3.259376,3.3745589892918937,0.13296513769300247
3.261771999999999,3.3946744404125484,0.13214800030227905
3.2641599999999986,3.4142308130257626,0.1313875816863539
3.266539999999999,3.4307141497059215,0.13075232143111545
3.2689439999999994,3.4451953856396624,0.1301810228772632
3.2713319999999992,3.457814290453848,0.1296584801315452
3.273712,3.470013886387452,0.12918516576521064
3.276107999999999,3.4794199856417216,0.12878336342043778
3.2784959999999987,3.487383062657015,0.128389182720552
3.28088,3.4934838085527518,0.12803985316092145
3.283275999999999,3.495580352955655,0.12781292425402951
3.285663999999999,3.4978166669854187,0.12757145222919036
3.2880439999999997,3.4976315713881845,0.12743482849932095
3.2904400000000003,3.497958332470148,0.12732269962181905
3.292828,3.5002871942985285,0.12715248150895195
3.295207999999999,3.508482588739299,0.12683211976284492
3.297611999999999,3.512394242433516,0.12665298922222185
3.299999999999999,3.5161661265008726,0.12649090977932784
3.3023799999999994,3.5232905857550043,0.12621292706927378
3.304784,3.5329762242629945,0.12582346293229268
3.307167999999999,3.543593028330763,0.1254201642419288
3.3095479999999995,3.552487270905834,0.12504499817642095
3.3119479999999992,3.564873858294542,0.12454374802290537
3.3143320000000003,3.5740476401233345,0.1241402462701827
3.316716,3.58121932120571,0.12378378768066554
3.3191119999999987,3.5871802974745868,0.12347229300533642
3.3215000000000003,3.5931412737434636,0.1231607983300073
3.3238959999999995,3.602035516318536,0.12277684049441435
3.3262919999999987,3.60850834926661,0.12249104826369658
3.3286800000000003,3.6171230525879614,0.12213790294051978
3.331064,3.6255979862824526,0.12179690956668869
3.3334599999999988,3.6347245462830013,0.12146738513616391
3.3358480000000004,3.6429199407237722,0.121156235806591
3.338227999999999,3.644736945872955,0.12096669673987569
3.3406319999999994,3.64590232471608,0.12076771183997918
3.343019999999999,3.6390593005735368,0.12078618015390624
3.3454,3.6337065204982135,0.1207273578219172
3.347804,3.624861395609254,0.12080305269985869
3.3501879999999997,3.6114529907200197,0.12104675517750334
3.3525720000000003,3.5976252769502053,0.12132938998609281
3.3549679999999995,3.5819352320608346,0.12164682723309755
3.357356,3.5642430864250465,0.12202100547853229
3.359736,3.5422672000427045,0.12253058460912827
3.362131999999999,3.526577155153333,0.12284497999347789
3.364519999999999,3.513820376570157,0.12309143957039265
3.3669,3.506138734666452,0.12319472594152178
3.369299999999999,3.498457092762748,0.12329801231265092
3.371684,3.488913119739488,0.12343770121534704
3.374063999999999,3.481371247462645,0.12352488879415917
3.376467999999999,3.471547735185664,0.1236933085599757
3.378855999999999,3.462375849214742,0.12387305721332083
3.3812359999999995,3.4502706969376233,0.12412753945964612
3.383635999999999,3.437094609473867,0.12442134014692101
3.386023999999999,3.426712018689445,0.12466390818766973
3.3884039999999995,3.4167015149573605,0.12494703363994035
3.390808,3.4096242775314716,0.12515603702070618
3.393196,3.4031986664116407,0.12537443844744295
3.395576,3.400125630478585,0.12546921672341824
3.3979719999999998,3.398914925665086,0.12552192008915705
3.400359999999999,3.3978439904784477,0.1255587917209453
3.40274,3.3964935160380882,0.1256262832435808
3.405135999999999,3.3957946679037874,0.12570373300239152
3.4075239999999987,3.396166754956125,0.1257439266460889
3.409903999999999,3.3882508997690746,0.1260578705793148
3.4123,3.3834080805150797,0.12626962639946634
3.414688,3.375492225328029,0.12657333680188126
3.4170679999999987,3.3677161397678392,0.1268612662184756
3.419471999999999,3.3619421549540665,0.1270878770619623
3.421859999999999,3.357378874953792,0.12726029307478795
3.4242399999999997,3.354026299767016,0.12738263993562884
3.426636,3.355097234953654,0.12734756580746306
3.429024,3.359380975700208,0.12720686108707827
3.431403999999999,3.3696710186860126,0.12690283870363978
3.4338,3.386618990217126,0.12645031721661928
3.436188,3.4089216376814315,0.1258404196073479
3.4385839999999988,3.4322952203323753,0.12520079695835815
3.44098,3.4576709037297366,0.12451573480116568
3.443363999999999,3.480253090447763,0.12388731592455146
3.445748,3.5053964564196467,0.12315690212785176
3.448143999999999,3.5293291175780315,0.12247679224303032
3.450531999999999,3.550608051683942,0.12182922992911231
3.4529119999999995,3.573377229857072,0.12110229906508276
3.4553119999999997,3.59707757358998,0.12035295562287252
3.457699999999999,3.625061658069442,0.11944982999353644
3.46008,3.650112476242709,0.11863576340336118
3.46248,3.673300963296419,0.11785382711382074
3.4648639999999986,3.7003538822161026,0.11699813214578897
3.467248,3.7234025996429527,0.11624978078457213
3.469643999999999,3.7421675763232494,0.11563397437747693
3.4720319999999987,3.7635862800560203,0.11498544066855945
3.474411999999999,3.7797900774824575,0.11449358369439802
3.476811999999999,3.797576666774732,0.11400374055253416
3.4791999999999987,3.809496723454616,0.113650873644901
3.4815799999999992,3.8146190819623316,0.11344816567217036
3.483976,3.81159326785752,0.11344808732521774
3.486364,3.8056341874465116,0.1135118113230598
3.4887479999999997,3.7967418407293088,0.11363827304222363
3.491144,3.7935762569976363,0.1136506710186509
3.493532,3.787337637332909,0.11373727514471957
3.495916,3.779516225802345,0.11383090965426608
3.498315999999999,3.775279706884034,0.1138733305518311
3.5007,3.776769950951253,0.11380517240145288
3.5030919999999988,3.783195562071084,0.11363559327647664
3.505488,3.7877588420713586,0.11349616813824892
3.507871999999999,3.7943242228180503,0.11331512468340614
3.5102519999999995,3.8048938050575756,0.11304838109299176
3.512656,3.806663588378515,0.11295618347973906
3.515039999999999,3.809224767632373,0.11286054894040462
3.517424,3.814067586886368,0.1126937544212215
3.519827999999998,3.8141148087146113,0.11261821837236421
3.522212,3.8124394690501577,0.11256055295446533
3.524592,3.8062480712136733,0.1125687859141837
3.526988,3.801919004496745,0.11254566676082363
3.529375999999999,3.800523204086012,0.11246135352469862
3.531756,3.803411144421833,0.11225848540348979
3.53416,3.8080216462503507,0.11203470384300074
3.5365439999999992,3.8106300473324515,0.11185481107516224
3.538924,3.8052300454288845,0.1118637407363385
3.541328,3.8015526050180144,0.11185251302624417
3.543716,3.799737495726701,0.11180759242444761
3.5460960000000004,3.797829838636771,0.11169775830474836
3.5484919999999995,3.7861912170684766,0.11179187033067362
3.55088,3.7678946669548736,0.1120078786915279
3.55326,3.7543937142670223,0.11212798486256663
3.555664,3.7370283297131976,0.11232259971476222
3.558052,3.7156587436665394,0.11260500862228585
3.5604319999999987,3.7002954598591318,0.11275724467166486
3.562828,3.68814498161164,0.11282063893625631
3.5652159999999995,3.6761342729910083,0.11286940760875713
3.567596,3.66840730511693,0.11280215651390488
3.569991999999999,3.666826409108963,0.11258889682269276
3.572379999999999,3.665245513100996,0.1123738140339307
3.574776,3.6627334515332506,0.11217394435444338
3.577171999999999,3.6597095332863083,0.11195002997642936
3.579556,3.65375234873317,0.111785252232216
3.5819399999999995,3.645141437127557,0.11165386475107672
3.584335999999998,3.6436077629478327,0.1113594933307432
3.586724,3.6480803910073596,0.11092864638971678
3.589103999999999,3.6506906879473298,0.11052938217784855
3.5915,3.6562342511934953,0.11007453939475728
3.593888,3.6637326933578342,0.10965899922734398
3.596268,3.6748160281344266,0.1091892064993135
3.5986639999999994,3.6866907588439366,0.10871282504106049
3.6010519999999997,3.6945612880606133,0.10832936344301716
3.603448,3.7049457747029044,0.10792496849920913
3.605844,3.717332362091612,0.10747349810545245
3.608231999999999,3.7292996405997396,0.10706608603052041
3.610612,3.738193883174812,0.10673370318073325
3.613016,3.7448064857497463,0.10647012722625052
3.6153999999999993,3.747414886831847,0.10629515464766784
3.61778,3.7455997775405336,0.10624727581029002
3.62018,3.7462986256748345,0.10618102543931833
3.622563999999999,3.750210279369051,0.10603130182817305
3.624948,3.7539821634364077,0.10589568244526237
3.627352,3.760687313809959,0.10570338601885587
3.629736,3.775540636796038,0.10533500258351307
3.632116,3.786249988662423,0.10506841608159487
3.634511999999999,3.7972388797825283,0.10478240350121329
3.636899999999999,3.809578245342993,0.1044452564966489
3.63928,3.8188445749704023,0.10417738925942718
3.641676,3.823734616052641,0.1039506894828471
3.644064,3.8298353619483776,0.10368676482615989
3.646443999999999,3.837798438963671,0.10339686531031488
3.64884,3.849905487098658,0.10302164080792017
3.651228,3.8594985778080315,0.10265882562464751
3.653623999999999,3.8688121292636835,0.10232085872505636
3.65602,3.875611723293722,0.10199554550338
3.658408,3.881200612510261,0.10170479894025344
3.660791999999999,3.8898625376598552,0.10134830517241386
3.6631959999999992,3.903320060235203,0.10091627655858793
3.66558,3.9199903883704645,0.10040969382587006
3.667959999999999,3.9361488598265284,0.09988107306905596
3.6703639999999993,3.948954756095817,0.09944374953965919
3.672748,3.9604101779247465,0.09905565065196242
3.675127999999999,3.972517226059734,0.09868455368022493
3.677532,3.9771277278882513,0.09848962819741229
3.679919999999999,3.9829489345302673,0.09825937560326814
3.6823,3.983834774119672,0.09811369709338155
3.684704,3.9863034055749123,0.09796962185941281
3.687092,3.9869097059105965,0.09784844571611961
3.689472,3.9883074021791987,0.0977266042843629
3.691875999999999,3.987842767328244,0.09762879453269334
3.694263999999999,3.9867265061712316,0.09751881490030413
3.696643999999999,3.9814662738945255,0.09749177176526697
3.699048,3.9797909342300724,0.09743033123290473
3.7014359999999993,3.9808165434463367,0.09727478011283103
3.703816,3.986777519715213,0.09704042446429618
3.706211999999999,3.9991641071039212,0.09667109583293604
3.708596,4.014623730425685,0.09625423446364867
3.710975999999999,4.0260791522546135,0.09590642059905918
3.713372,4.029526171097876,0.09568629237136374
3.71576,4.032693650687418,0.09548975668918425
3.71814,4.038142770277096,0.0952373761023101
3.720535999999999,4.043731659493635,0.09497162173395744
3.72292,4.044804490538143,0.0947472677768876
3.725299999999999,4.049229896769426,0.09444311100273298
3.727699999999999,4.049511331881017,0.09421626598497118
3.730088,4.051515328485303,0.0939772535476038
3.732467999999999,4.049654893223615,0.09379416565337179
3.734864,4.050867493894984,0.09355402096368926
3.737252,4.054082195312768,0.09328022425170372
3.739632,4.057436666357414,0.09299360021633793
3.742032,4.0617223029618374,0.09269777089500333
3.74442,4.0670788747529,0.09237866625239334
3.7468,4.069921489118347,0.0920693176946081
3.749203999999999,4.068852449789578,0.0918872431933818
3.751591999999999,4.064570604900892,0.09177242776917205
3.753971999999999,4.054422227399817,0.09174079413673043
3.756376,4.0382675476594905,0.0918017180337188
3.7587639999999993,4.020250536799608,0.09188493827932172
3.761144,4.011173094485171,0.09183147400441817
3.763539999999999,4.004377292170872,0.09172221958016372
3.765927999999999,3.9986524250432107,0.09159125038186204
3.7683079999999993,3.995069428288827,0.09141781178566019
3.770707999999999,3.9940003889600573,0.09123722517528786
3.773092,3.9909292488848718,0.09108765396183711
3.775471999999999,3.991070914369602,0.09087297831533359
3.777872,3.994285615787387,0.09060670978714865
3.780256,4.002575453884645,0.09025918980756545
3.782639999999999,4.010865291981901,0.08991505446825662
3.785036,4.018363734146241,0.08957080842701794
3.787424,4.030657773736331,0.08917472609060069
3.789804,4.040949712580005,0.08880914916344734
3.792207999999999,4.047237449930845,0.08849832678570213
3.794596,4.054037043960883,0.08821198714754697
3.796975999999999,4.063397817244779,0.08785022475073463
3.799372,4.073038129782394,0.08746648854187884
3.80176,4.081327967879651,0.08712141078046748
