Time,Force,Position
5.615831999999999,0.034309192309623864,0.0
5.618219999999999,0.04150647787601314,0.0
5.620604,0.045490957882486825,0.0
5.622999999999999,0.04747333714254366,0.0
5.625387999999999,0.048664320469682394,0.0
5.627768,0.04878436861018259,0.0
5.630163999999999,0.04878436861018259,0.0
5.632552,0.04878436861018259,0.0
5.634936,0.04878436861018259,0.0
5.637331999999999,0.04878436861018259,0.0
5.639719999999999,0.04878436861018259,0.0
5.642099999999999,0.04878436861018259,0.0
5.644496,0.04878436861018259,0.0
5.646884,0.04878436861018259,0.0
5.649279999999999,0.048784368610182594,0.0
5.651679999999999,0.048784368610182594,0.0
5.654064,0.04708152860384618,0.0
5.656447999999999,0.044167983784011024,0.0
5.658844,0.03538790635178552,0.0
5.661232,0.025397124106061274,0.0
5.663611999999999,0.014475176300558716,0.0
5.666012,0.007277890734169437,0.0
5.6684,0.003293410727695752,0.0
5.670779999999999,0.0013110314676389172,0.0
5.673183999999999,0.00012004814050019319,0.0
5.675571999999999,0.0,0.0
5.677951999999999,0.0,0.0
5.680356,0.0,0.0
5.682744,0.0,0.0
5.685127999999999,0.0,0.0
5.687524,0.0,0.0
5.689912,0.0,0.0
5.692295999999999,0.0,0.0
5.694692,0.0,0.0
5.69708,0.0,0.0
5.69946,0.0,0.0
5.701855999999999,0.0,0.0
5.704248,0.0005393570210808244,0.0
5.706628,0.0029410451617182896,0.0
5.709023999999999,0.005342733302355754,0.0
5.711407999999999,0.008675587002771538,0.0
5.713787999999999,0.010937505516548793,0.0
5.716187999999999,0.014270359216964578,0.0
5.718575999999999,0.01427035921696458,0.0
5.720955999999999,0.01427035921696458,0.0
5.723355999999999,0.01427035921696458,0.0
5.725743999999999,0.01427035921696458,0.0
5.728123999999999,0.01427035921696458,0.0
5.73052,0.01427035921696458,0.0
5.732908,0.01427035921696458,0.0
5.735287999999999,0.016299960305264566,0.0
5.737688,0.019120957326482658,0.0
5.740072,0.021150558414782646,0.0
5.742452,0.0261134258092778,0.0
5.744852,0.028282796524438,0.0
5.74724,0.028282796524437995,0.0
5.749635999999999,0.028282796524438,0.0
5.752032,0.027743439503357177,0.0
5.75442,0.02534175136271971,0.0
5.756803999999999,0.022940063222082245,0.0
5.7592,0.019607209521666457,0.0
5.761588,0.017345291007889202,0.0
5.763968,0.014012437307473417,0.0
5.766368,0.014012437307473417,0.0
5.768751999999999,0.014012437307473417,0.0
5.771136,0.014319476903076972,0.0
5.773531999999999,0.014486746871820316,0.0
5.775919999999999,0.014486746871820317,0.0
5.778304,0.014486746871820319,0.0
5.7807,0.014486746871820319,0.0
5.783087999999999,0.012457145783520335,0.0
5.785468,0.009636148762302238,0.0
5.787872,0.007606547674002254,0.0
5.79026,0.0031830373005879197,0.0
5.792643999999999,0.0024841891662868683,0.0
5.79504,0.007027747680201395,0.0
5.797431999999999,0.01250247175389424,0.0
5.799811999999999,0.01783742620072688,0.0
5.802208,0.021310049528002875,0.0
5.804592,0.0258536080419174,0.0
5.806972,0.03281857618282941,0.0
5.809376,0.042996349883657005,0.0
5.811764,0.05117202283806775,0.0
5.814143999999999,0.06242073172553388,0.0
5.816547999999999,0.07152757023972295,0.0
5.818932,0.07832526841189162,0.0
5.821311999999999,0.08391226177056155,0.0
5.823708,0.09059769065775314,0.0
5.826091999999999,0.0962121843583062,0.0
5.828472,0.09940526843186177,0.0
5.830876,0.09966508619922218,0.0
5.833264,0.09992490396658259,0.0
5.835644,0.100184721733943,0.0
5.83804,0.09964536471286217,0.0
5.840423999999999,0.09817484213200303,0.0
5.84282,0.0936312836180885,0.0
5.845215999999999,0.08815655954439566,0.0
5.847603999999999,0.08401258842470175,0.0
5.84998,0.08159117879770426,0.0
5.852383999999999,0.07795906435720804,0.0
5.854771999999999,0.07099409621629602,0.0
5.857151999999999,0.06081632251546842,0.0
5.859556,0.05264064956105768,0.0
5.861943999999999,0.04139194067359154,0.0
5.864324,0.03228510215940246,0.0
5.866724,0.025180364391630242,0.0
5.869111999999999,0.019426101064216977,0.0
5.871492,0.012740672177025385,0.0
5.873887999999999,0.0072462266169725205,0.0
5.876272,0.006454830684054409,0.0
5.878655999999999,0.011529967363526641,0.0
5.88106,0.014323464042861602,0.0
5.883443999999999,0.016790199640232994,0.0
5.885824,0.02528884196086883,0.0
5.888228,0.03457698435655353,0.0
5.890611999999999,0.05354697354448967,0.0
5.892992,0.07768275135264587,0.0
5.895396,0.10686426964052191,0.0
5.897784,0.14935974916114564,0.008374088273921424
5.900164,0.19958219655584708,0.016620909276370548
5.902559999999999,0.25965376071154334,0.024541913492452053
5.904947999999999,0.3274522927413173,0.03237610383285134
5.907328,0.40111546152561234,0.04027693328346766
5.90972,0.48236582855712495,0.048141861821401136
5.912108,0.5729259553285516,0.05589617070807523
5.914488,0.6680002444141403,0.06384761442527853
5.916891999999999,0.7685198613736693,0.07192521686311787
5.919279999999999,0.8734138710205006,0.08019463924470713
5.921659999999999,0.9847040955874105,0.08848756205444647
5.924056,1.0999494039610418,0.09685019052887306
5.926444,1.2218507450221123,0.10505243795939845
5.92882,1.353900463584258,0.11317390155640358
5.931215999999999,1.494610211438129,0.12106259575215053
5.933603999999999,1.6279178566420167,0.12908646889222722
5.935984,1.765790677704048,0.13683619420231463
5.938395999999999,1.8920267730556541,0.14457351368528182
5.940783999999999,2.011933596801785,0.1522830132748416
5.943164,2.128025106368054,0.15984888226044203
5.94556,2.2313617332090168,0.1589841653943056
5.947944,2.325109061056345,0.1583314559769219
5.950339999999999,2.4127122128954315,0.15790627176846334
5.952736,2.490726065740884,0.15763301069052604
5.955119999999999,2.5631548210855355,0.1572552508666906
5.9575,2.6284156870635504,0.15685687338366017
5.959895999999999,2.6809216703162586,0.15666259576097624
5.962284,2.732917692747638,0.15610284632366836
5.964663999999999,2.7826811928649926,0.15526938168733143
5.967056,2.8282100699219055,0.15422600667069547
5.969443999999999,2.8685731583585983,0.153075771890943
5.971824,2.9041897670556516,0.15175635454936867
5.974219999999999,2.927283810452876,0.15070155119998568
5.976607999999999,2.944932525976159,0.14959872302592853
5.978987999999999,2.9543877429165413,0.148711072058765
5.981384,2.9694771750438362,0.14754471323510787
5.983772,2.9793517008647994,0.1466355176892254
5.986151999999999,2.9902499400441567,0.1457652274552813
5.988567999999999,3.0043137629551873,0.1448532392154495
5.990955999999999,3.013162679559885,0.1441640113780202
5.993335999999999,3.0187987906046674,0.14361330954855295
5.995732,3.0297895775826422,0.1428273251846021
5.99812,3.0361245367617253,0.14219296037271129
6.000515999999999,3.0456723015007245,0.1414152207142251
6.002912,3.0552200662397238,0.14064120043903064
6.0053,3.0626259606054456,0.13995911379462944
6.007679999999999,3.076689783516476,0.13905483603520835
6.010076,3.088239649001892,0.13822735245065768
6.012464,3.093783212248057,0.1376221118875483
6.014844,3.097464444374666,0.13706910257685656
6.017248,3.0979328709413583,0.13665174733182833
6.019636,3.096119657507914,0.13634298559417715
6.022015999999999,3.0955171488879683,0.13596622889285823
6.024416,3.08955996433483,0.1358195788085688
6.0268,3.081460909408415,0.13576649965979548
6.02918,3.066564156309831,0.13594645831315702
6.031587999999999,3.0484545976513315,0.13627544938784078
6.033972,3.0323471397392487,0.13652684114932193
6.036356,3.0145171203344705,0.13680920342506486
6.038751999999999,2.999480597609027,0.1370124359023646
6.041136,2.9873773411897773,0.13711442381184094
6.043519999999999,2.9689882432775576,0.1374812995592188
6.045916,2.951670080551976,0.1378075517151277
6.048304,2.931650968945677,0.1383051672358558
6.050684,2.912003944391715,0.1388435853383473
6.053084,2.893939711703589,0.13936666356591626
6.055472,2.8743852349482446,0.13997183811174818
6.057851999999999,2.8533405141256805,0.14066855546680448
6.060255999999999,2.8330871892360348,0.1413774754137792
6.062643999999999,2.8174896921452803,0.14193267278840307
6.065023999999999,2.8046856917338614,0.1424033194534748
6.067428,2.7914623824418614,0.14293644644654083
6.069815999999999,2.7828949009487536,0.1433176691391581
6.072199999999999,2.7781918513216186,0.14356644049410805
6.074596,2.775490902440901,0.1437392331079064
6.076984,2.7773060117322146,0.14378016163908489
6.079364,2.786989754382335,0.14352425517206518
6.081759999999999,2.7956025618458167,0.14331944853342993
6.084147999999999,2.8067293267349136,0.14306987389031312
6.086532,2.819997961997287,0.14273184922392543
6.088927999999999,2.8320558924461623,0.1424569550828195
6.091312,2.8459761540145943,0.1421122510966812
6.093696,2.8634813081952792,0.14167454609657293
6.096091999999999,2.885409972749378,0.14103271452841992
6.09848,2.9084095724901156,0.14035112863211194
6.100859999999999,2.9343424385370485,0.13957681243413878
6.103256,2.957481807904646,0.13888938331104572
6.105644,2.97633743652569,0.13836855828683134
6.108024,2.9990574970127066,0.13770975962469476
6.110415999999999,3.019775456753307,0.1371454485905473
6.112803999999999,3.0404934164939075,0.1365885912075699
6.115183999999999,3.062561850674866,0.13594368818636207
6.117595999999999,3.0827679537362696,0.13537374799185783
6.119983999999999,3.1023224304916135,0.13480243745313106
6.122363999999999,3.1257413391129316,0.134121848797244
6.124756,3.148368851801332,0.13346100150810775
6.127139999999999,3.164198666317564,0.13302630940704996
6.129519999999999,3.180959646393574,0.1325686388171519
6.131916,3.1949271297902495,0.1321942836167687
6.1343,3.205821577253869,0.1319313569284967
6.136676,3.220999765464042,0.13150973848722877
6.139071999999999,3.2404616944207696,0.13093312340160912
6.141456,3.2560591915115245,0.13047316081249713
6.143836,3.2665815519228065,0.13018284740384753
6.146248,3.2767318252817508,0.12985783206339827
6.148636,3.283948832334499,0.1296207767945663
6.151016,3.2946581842008844,0.12924069534524787
6.153428,3.312864082373739,0.1285890754536244
6.155816,3.3313495198003147,0.12792070282777665
6.158211999999999,3.3481123957341934,0.12728210095833736
6.160615999999999,3.363012940548516,0.12668759573166144
6.163,3.377633946109118,0.1261241379350351
6.165379999999999,3.391463555736802,0.12557220946085498
6.167783999999999,3.4058050220436833,0.12504808583127197
6.170171999999999,3.415211121297953,0.12466713336398343
6.172552,3.421683954246028,0.124363005944796
6.174947999999999,3.4290879527538802,0.12403255868213606
6.177332,3.434350080888456,0.12377565708036012
6.179712,3.4366789427168363,0.12359742715561459
6.182115999999999,3.435934768612161,0.1235160921518096
6.184503999999999,3.430906853760932,0.12358844088802255
6.186883999999999,3.419453327789872,0.12389110625723092
6.189288,3.408419110699392,0.1241487353445239
6.191675999999999,3.399107455101609,0.12438085691530709
6.194056,3.385372289130412,0.12478978554983186
6.196451999999999,3.3737789935324916,0.12511583778615795
6.198836,3.357482648307436,0.12564629976421318
6.201215999999999,3.3398358286420216,0.12623037996088718
6.203619999999999,3.319115973043552,0.126907802361813
6.206007999999999,3.298116578191362,0.12762344770136202
6.208383999999999,3.277396722592892,0.12831164899714814
6.21078,3.258027341434781,0.12892523191744443
6.213163999999999,3.23795911214237,0.12961906996973274
6.215544,3.2170994869170397,0.1303176269004788
6.217939999999999,3.19637963131857,0.13100841368157864
6.220324,3.1808746820264338,0.13151721029653454
6.222719999999999,3.16965347348085,0.13186829148257728
6.225123999999999,3.1627160056818213,0.13206683656938853
6.227511999999999,3.158572034562127,0.13220262441148145
6.229892,3.1593634304950453,0.13219580721800978
6.232296,3.1622966968012403,0.13211191069674777
6.234684,3.1695137038539896,0.1318704762792479
6.237064,3.176451171653019,0.1316597337840815
6.239467999999999,3.1848788835192674,0.1313628158355124
6.241852,3.1975903361320697,0.13090458642792485
6.244232,3.207508292065537,0.13051984470162856
6.246635999999999,3.2226411543053364,0.12995529644456139
6.249024,3.232978419119384,0.12952021479461967
6.251403999999999,3.245317784679849,0.12902307400827245
6.253807999999999,3.2588678550538126,0.12846775280155448
6.256192,3.2750716524802503,0.1278641311258627
6.258571999999999,3.291135680279828,0.1272853350235959
6.260971999999999,3.3041738939745944,0.12670686697186803
6.263356,3.3173518772962205,0.12611314307707197
6.265736,3.331461026177625,0.12549329628678793
6.268144,3.3403552687526967,0.12505844863632004
6.270527999999999,3.345105540208074,0.12476760480956896
6.272907999999999,3.346922545357257,0.12456316312513376
6.275312,3.3511609601334373,0.12425465913107515
6.277695999999999,3.358751950096393,0.12382909455146673
6.280075999999999,3.364340839312932,0.12346111092741784
6.282472,3.37114043334297,0.12304826885647575
6.28486,3.3819442288658417,0.12252924731527187
6.287239999999999,3.3927480243887134,0.1220169876121358
6.289631999999999,3.4023411150980865,0.12155702623485733
6.292019999999999,3.411794436180599,0.12110891830064129
6.294395999999999,3.415520994277582,0.12079341111155562
6.296799999999999,3.4223205883076195,0.1203852496927147
6.299187999999999,3.42832878640474,0.11998470468825596
6.301568,3.4363390852482762,0.1195350099749186
6.303963999999999,3.442487052972256,0.11912755728295484
6.306348,3.447983394390178,0.1187128086877733
6.308731999999999,3.4589269595399097,0.11819856219799042
6.311128,3.4720123950629187,0.11762510024327062
6.313511999999999,3.4853773698396475,0.11702427712346711
6.315908,3.500884214989655,0.11635258477671272
6.318299999999999,3.5185329305129383,0.11561659745960531
6.320684,3.534179545289805,0.11492778488020282
6.323063999999999,3.5466133545067557,0.11434316911320531
6.325455999999999,3.552249465551538,0.11391951245470516
6.327843999999999,3.560167216596458,0.11341849735306071
6.330223999999999,3.5640807661485434,0.11301846852822016
6.33264,3.565061049394434,0.11268864720419172
6.335023999999999,3.5638994622670475,0.11242142414804604
6.337403999999999,3.5630174143933817,0.11212617358078411
6.339808,3.5654879417064915,0.11172596091143526
6.342196,3.5710315049526566,0.1112438715313704
6.344576,3.5797878737587374,0.11067725287736639
6.34698,3.586402372191541,0.11016904329972715
6.349364,3.5903631435718695,0.10969950236697053
6.351744,3.594463684579059,0.1092171237942668
6.354148,3.59721375114589,0.1087919453630286
6.356536,3.597170321033385,0.10841606411827587
6.358915999999999,3.592191523868268,0.10814604900859172
6.361307999999999,3.5881438922629303,0.10786069209615068
6.363695999999999,3.5851671958442304,0.10754685944491787
6.366076,3.581119564238892,0.10726237551777949
6.36848,3.583497543753385,0.10681009467316663
6.370868,3.5862948321484582,0.10631568556436496
6.373248,3.590674912409368,0.10581354785235153
6.375651999999999,3.591842187110361,0.10539665374230926
6.378036,3.5940803969979944,0.10494823469381852
6.380416,3.592733714273374,0.10454250990933862
6.382819999999999,3.592877275615972,0.10406572476703096
6.385207999999999,3.5960938728916263,0.1035225955550104
6.387584,3.5930246286743097,0.10313386702652441
6.389987999999999,3.590095154083853,0.10273166581416676
6.392375999999999,3.5822303124407844,0.10242830641779684
6.394755999999999,3.582513643410243,0.10195030946458222
6.39716,3.583588370312621,0.1014718432442105
6.399543999999999,3.5845233275881374,0.10100733751046848
6.401928,3.5845271193038757,0.10055273171026431
6.404323999999999,3.5877437165795296,0.10002016685384868
6.406708,3.5937538105345186,0.09944322194499808
6.409087999999999,3.598041342996811,0.09888177770655704
6.411484,3.602608414712824,0.0982993181351731
6.413872,3.6075947953094176,0.0976792754261462
6.416255999999999,3.6033620681068452,0.09725177194074987
6.418652,3.60085190239697,0.09681276976392811
6.421035999999999,3.603416873366566,0.09627800200473514
6.423416,3.6082634843362995,0.09567803843654236
6.425824,3.614832656798729,0.09506827305655226
6.428208,3.6259178874331903,0.09440715445340701
6.430588,3.6376547443737093,0.09376610559245707
6.432991999999999,3.643245529448118,0.09324935150830176
6.43538,3.653911451201999,0.09263043308991097
6.437764,3.663366668142381,0.09204986525374557
6.440159999999999,3.673613281015681,0.09146691830017548
6.442544,3.673849390156897,0.09106972724595383
6.444924,3.6758080607908092,0.09066560891162113
6.447315999999999,3.6779065010515812,0.09024931854628325
6.449703999999999,3.685080077991826,0.08974195774119588
6.4521,3.6899720149319335,0.08929901369124424
6.4545,3.697005822245318,0.08881402869510578
6.456887999999999,3.702549385491483,0.08838665936010934
6.459268,3.7036694383642343,0.08806302867341964
6.461672,3.7031594775429055,0.08781281045820293
6.464055999999999,3.7063741789606905,0.08751603698606249
6.466436,3.709588880378475,0.08722187663237217
6.468828,3.7040037828776744,0.08705930638180756
6.471216,3.6970682109365147,0.08694480034275082
6.473595999999999,3.6862682071293813,0.08688430772498684
6.475999999999999,3.6734661025758313,0.0868570335470212
6.478384,3.6554490917159486,0.08693533764812497
6.480763999999999,3.6405051167891225,0.08695638583224274
6.483167999999999,3.6246299763025167,0.08698514674561099
6.485555999999999,3.610617166935468,0.0869920505417299
6.487936,3.599537623874614,0.08695361363858936
6.49034,3.5933934478663723,0.08683789065825256
6.492723999999999,3.5825934440592393,0.08677273195528865
6.495104,3.568580634692191,0.08677804345914805
6.497503999999999,3.5496324582725305,0.0868578015608952
6.499891999999999,3.528682181106453,0.0869720077362241
6.502272,3.5026567672609032,0.08717535618380501
6.504676,3.477702288601992,0.08735992395996238
6.507064,3.454749910689497,0.0875156599678967
6.509444,3.431937302403863,0.08766107947194787
6.511839999999999,3.411918190797564,0.08777303400265302
6.514227999999999,3.3866841728849324,0.08799732503836434
6.516608,3.368108083517609,0.08813318487849942
6.519012,3.3473901237770085,0.08832545033729662
6.521395999999999,3.3303968262755217,0.08847396198715139
6.523776,3.3154056295204515,0.08858472063102302
6.526183999999999,3.3054895694448527,0.08859780247613312
6.528568,3.2942230349288963,0.08866500865606963
6.530948,3.2808146300396626,0.08878435800065883
6.533351999999999,3.2654041244040117,0.08894078496226321
6.535739999999999,3.2466410435815853,0.08918812706259657
6.538119999999999,3.224665157199243,0.0895140307649405
6.540524,3.2062741634291543,0.08980908094422982
6.542907999999999,3.189885270405482,0.09007236598808122
6.545287999999999,3.175079169247646,0.0903430316333701
6.547684,3.163997730328923,0.09056464050915579
6.550072,3.1557097880895344,0.09075213328424771
6.552451999999999,3.147282076223286,0.09095667294145401
6.55486,3.1379231987972602,0.09117692898027487
6.557243999999999,3.131637357304289,0.09132724721092701
6.559624,3.120555918385566,0.09155765542168469
6.562028,3.1156205513329542,0.09165238084576324
6.564411999999999,3.1105454146534828,0.0917597483476766
6.566796,3.1085433139070657,0.09180054866719678
6.569187999999999,3.1086830835339256,0.09178577144558636
6.571576,3.1076121483472874,0.09181292543426064
6.573955999999999,3.10533050834715,0.09188167436704181
6.576359999999999,3.104911199466569,0.09192579171882405
6.578744,3.107145617638463,0.09194714788728257
6.581123999999999,3.1091004965566373,0.0919980441130212
6.583527999999999,3.110403749168753,0.09203202052056636
6.585915999999999,3.1157112032737024,0.09198323785679574
6.588296,3.118085391072457,0.09198879678638748
6.590691999999999,3.1223219099907675,0.09196778882542174
6.593076,3.1256272633493007,0.09195956862568518
6.595459999999999,3.1259993504016386,0.09200683350233421
6.597856,3.1280939989466723,0.09204228577828492
6.600239999999999,3.1313993523052046,0.09203407043574778
6.60262,3.1365670367832936,0.09199837193432256
6.605024,3.1386616853283273,0.09203402861094895
6.607412,3.1436896001795565,0.09201326527875046
6.609788,3.1455047094708695,0.09207948501104446
6.612183999999999,3.1446660917097082,0.09217068172706011
6.614571999999999,3.148902610628019,0.0921510480866135
6.616952,3.148203762493718,0.09222519597535037
6.619347999999999,3.149786554359554,0.09222963738687386
6.621736,3.152440281412029,0.09220689847862173
6.624127999999999,3.1543026125315854,0.09218199953756268
