Time,Force,Position
4.845064000000001,0.14492156434571501,0.0
4.847464,0.15796693198384262,0.0
4.849848,0.17115206924883045,0.0
4.852228,0.1864790768870953,0.0
4.854623999999999,0.19859327896544465,0.0
4.857011999999999,0.21256981216335058,0.0
4.859396,0.22248776809681775,0.0
4.861792,0.23254549365714516,0.0
4.8641760000000005,0.23645714735136186,0.0
4.86656,0.2342227291794677,0.0
4.868956000000001,0.2247713039548243,0.0
4.87134,0.22132618096943144,0.0
4.8737200000000005,0.21401662611806507,0.0
4.876124000000001,0.20721892794589641,0.0
4.878512000000001,0.1989309857065086,0.0
4.880891999999999,0.18971187790734248,0.0
4.883288,0.18007346122759568,0.0
4.885676,0.17322854122718387,0.0
4.888059999999999,0.16931688753296725,0.0
4.890456,0.16312359383861333,0.0
4.89284,0.1547884297709824,0.0
4.895224000000001,0.14966607126326698,0.0
4.89762,0.14440394312869137,0.0
4.900008,0.1390020453672556,0.0
4.902404000000001,0.13709249241945579,0.0
4.9048,0.1283852412994873,0.0
4.907184000000001,0.1241015005529332,0.0
4.909564,0.11888659424660072,0.0
4.911968,0.11753611980624179,0.0
4.914351999999999,0.12060915573929716,0.0
4.916736,0.12396173092607297,0.0
4.919131999999999,0.12531220536643192,0.0
4.921519999999999,0.1291766372324054,0.0
4.9239,0.1313185076056825,0.0
4.926296000000001,0.1275938453665692,0.0
4.9286840000000005,0.12494011831409445,0.0
4.931063999999999,0.12009014511673759,0.0
4.933464000000001,0.1141692367327422,0.0
4.935852000000001,0.10765107781429396,0.0
4.9382280000000005,0.10280110461693712,0.0
4.940636,0.09795113141958026,0.0
4.943020000000001,0.09002812228916804,0.0
4.945399999999999,0.08210511315875577,0.0
4.947804,0.0721800032819267,0.0
4.950192,0.061975354151377185,0.0
4.9525760000000005,0.059833483778100126,0.0
4.954980000000001,0.05242233132688558,0.0
4.957364,0.045942344435449346,0.0
4.959744000000001,0.038670961611095005,0.0
4.962147999999999,0.030188873973241936,0.0
4.964536000000001,0.026324442107268444,0.0
4.966915999999999,0.019704685588972003,0.0
4.969312,0.013364468324395987,0.0
4.9717,0.007955416619598291,0.0
4.974080000000001,0.008933804007619763,0.0
4.976483999999999,0.007528953795655768,0.0
4.978872000000001,0.009632652141920812,0.0
4.981252,0.009632652141920814,0.0
4.9836480000000005,0.00929873711659535,0.0
4.986036,0.00929873711659535,0.0
4.988416000000001,0.009959413223884385,0.0
4.990812,0.009959413223884387,0.0
4.9932,0.009959413223884387,0.0
4.995583999999999,0.009959413223884387,0.0
4.99798,0.009959413223884387,0.0
5.000363999999999,0.006832001519223961,0.0
5.002744,0.006832001519223961,0.0
5.005148,0.006832001519223961,0.0
5.007536,0.006832001519223961,0.0
5.009919999999999,0.006832001519223961,0.0
5.012316,0.004076676866901015,0.0
5.0147,0.004076676866901016,0.0
5.01708,0.004076676866901016,0.0
5.019484,0.004076676866901016,0.0
5.021872,0.002764374453554081,0.0
5.024252000000001,0.002764374453554081,0.0
5.026648,0.0006606761072890355,0.0
5.029036,0.0006606761072890355,0.0
5.031420000000001,0.0006606761072890355,0.0
5.033823999999999,0.000994591132614499,0.0
5.036212000000001,0.000807599677511137,0.0
5.038592,0.0043543202627521925,0.0
5.0409880000000005,0.006038709728436606,0.0
5.043376,0.010656365500316192,0.0
5.045756000000001,0.018067517951530738,0.0
5.048152,0.02934310226871878,0.0
5.05054,0.04262078733232367,0.0
5.05292,0.05496730683615024,0.0
5.055316,0.06824499189975512,0.0
5.057703999999999,0.08231407289627812,0.0
5.060084,0.09237895239996742,0.0
5.062480000000001,0.10351476709029526,0.0
5.064871999999999,0.1146505817806231,0.0
5.067268,0.12993036759064483,0.0
5.069664,0.14534992302752678,0.0
5.072048000000001,0.15769644253135334,0.0
5.074432,0.1692515661022618,0.0
5.076828000000001,0.18201739448666898,0.0
5.079216000000001,0.18891669025868588,0.0
5.081595999999999,0.19347997025896044,0.0
5.084,0.19762394137865436,0.0
5.086384000000001,0.1996260421250712,0.0
5.088768,0.20335070436418448,0.0
5.091163999999999,0.20120883399090742,0.0
5.093548,0.19441113581873876,0.0
5.095932,0.18388877540745682,0.0
5.098328,0.1706110903438519,0.0
5.100716,0.15826457084002535,0.0
5.103096000000001,0.14498688577642044,0.0
5.105492,0.1311119501783627,0.0
5.10788,0.12277678611073171,0.0
5.110264000000001,0.11700090543908918,0.0
5.11266,0.11429616484263279,0.0
5.115048,0.10860904025386882,0.0
5.117444000000001,0.11367469764399483,0.0
5.11984,0.12991244589359147,0.0
5.122228,0.15410947944274309,0.0
5.124608,0.18268090567919662,0.009911285220890331
5.127008,0.2257769979618966,0.019257303170229674
5.129396,0.2788816981188116,0.028208043034624375
5.131776,0.3361284735375512,0.03737738534082379
5.134172,0.3963066194046168,0.046739637139984636
5.136559999999999,0.46542243795925886,0.05574597532844006
5.138944,0.5481317570003691,0.06433322683276708
5.14134,0.6392196702216149,0.0729264447795996
5.143727999999999,0.7366840768765794,0.08152483747993679
5.146108,0.8435598408713062,0.0899651629315627
5.148508,0.9620270046060841,0.09810757905267226
5.150896,1.0890125321478576,0.10617046733792998
5.153276,1.223298564739767,0.11411523007052152
5.15568,1.362519964384288,0.1219068526842016
5.158068,1.501556268431575,0.12959810037418903
5.160448000000001,1.6405944683367313,0.13715132645630154
5.162851999999999,1.7839655266745538,0.14443920783265737
5.165240000000001,1.916863342287207,0.15167374569888054
5.167624,2.041010476667387,0.1589021540012304
5.170019999999999,2.1610627576139856,0.16600905341413547
5.172408000000001,2.276461106619562,0.16317669235165772
5.174792,2.385203422937699,0.1608376845722098
5.177187999999999,2.486730628060956,0.1588839025892735
5.179576000000001,2.585606001989607,0.15665144791927402
5.181956,2.6847628110298483,0.15407482295879021
5.1843520000000005,2.773399155516676,0.15188790635069374
5.18674,2.8493731650768144,0.150187686075814
5.189124,2.9200416163898733,0.14842285181629816
5.191520000000001,2.9863356750156296,0.14657031395597736
5.193908,3.0451823050210285,0.14481941362699755
5.196287999999999,3.089504268980181,0.14345630348277458
5.198688000000001,3.1254476387591983,0.14215641807310933
5.2010760000000005,3.1548275236493932,0.14094985355220158
5.203455999999999,3.178667637009162,0.13987190480763373
5.205852,3.199854023316455,0.13888604818909472
5.20824,3.2188985392504716,0.1380141259982544
5.210623999999999,3.2327281488781554,0.1373758620109022
5.21302,3.243624492199644,0.13683112004014955
5.215408,3.256243397013829,0.13625235009369355
5.217791999999999,3.266068805148679,0.13576323339251833
5.220188,3.2751028173506107,0.1352862044126643
5.222576,3.281994959179265,0.13489697695450273
5.224959999999999,3.288375244328723,0.13448605348719544
5.227356,3.295826464664819,0.13404193065026737
5.229744,3.2982025483214428,0.13377186462061952
5.232124000000001,3.303511898284261,0.13341414963577072
5.23452,3.311102888247217,0.13295786969563336
5.236912,3.3177627126503952,0.13252938437847556
5.239292000000001,3.3214892707473775,0.13219010395724987
5.241688,3.3210718577246663,0.13199074710419856
5.244076,3.3217253798885933,0.13174813549463515
5.246460000000001,3.320237031679243,0.1315858125391748
5.248856,3.317165891604057,0.13143990302655345
5.251244,3.3143742907825913,0.13126193905614442
5.253628000000001,3.3087891932817906,0.13115680820475223
5.256028000000001,3.3022729302212115,0.13107576453353628
5.258407999999999,3.294406192720274,0.13106758470640814
5.260804,3.2849094415252558,0.13117244845181936
5.263196000000001,3.2744815247704606,0.13130031022687877
5.26558,3.2619117376423876,0.1315133138287601
5.26796,3.251344051260732,0.1316546924809558
5.270356,3.2391935730132406,0.13181563484998748
5.272740000000001,3.225692620325389,0.13205251794589218
5.275119999999999,3.205766056517707,0.1325477011859704
5.277536,3.1858394927100244,0.13304909716781327
5.279920000000001,3.1654936200217616,0.13359346798700142
5.282299999999999,3.145659604012697,0.13415803037038518
5.284704,3.125406279123051,0.13477150256303544
5.287092,3.1067357460992415,0.1353675432701149
5.289472,3.093931745687822,0.13577812163094605
5.291872,3.084992177142377,0.13607049906340882
5.29426,3.079405183783706,0.1362211537298315
5.29664,3.0754009822908723,0.13635434487430448
5.299032,3.0692549104247617,0.13656996956215603
5.30142,3.0684635144918437,0.13657802033423472
5.303796,3.0678118881857857,0.13656955140670266
5.306191999999999,3.066229096319949,0.1365862577511035
5.308579999999999,3.070932145947084,0.13636689865811596
5.31096,3.0777770659474957,0.13606787715638222
5.313356000000001,3.086624086694325,0.1356994231750309
5.31574,3.0914669059483204,0.13546577494624693
5.318123999999999,3.101896718560985,0.13508726863912968
5.320536000000001,3.116190963039623,0.134597504122108
5.322924,3.1355603441977338,0.13392085052790004
5.325303999999999,3.156792056475401,0.13319357113074498
5.3277,3.1773721424470107,0.13246183182214427
5.330088,3.1963694365527835,0.13174695343985668
5.33248,3.2145753347256387,0.13103566803860758
5.334884000000001,3.22905657065938,0.13041740287748807
5.3372720000000005,3.23860243954051,0.1299629701355656
5.339651999999999,3.2462859773020827,0.1295640215617194
5.342048,3.254900680623434,0.1291495923422105
5.344431999999999,3.261653052825229,0.1287834453553133
5.3468160000000005,3.269336590586802,0.12839144362539665
5.349212,3.2715256827883223,0.12822036317332275
5.351596000000001,3.2746459405496213,0.1280265968383875
5.353975999999999,3.2819101694306134,0.127689597147231
5.35638,3.2861013623785507,0.1274577594864471
5.358768,3.2881506849532114,0.1273069008555733
5.361148,3.2891290723412325,0.1271946526512706
5.363552,3.2931804956623094,0.1269810422356124
5.365936,3.2917846952515766,0.1268896493348884
5.368316,3.2869437718554506,0.12685581165940926
5.37072,3.2831737836459634,0.1267836935461244
5.373108,3.2775414643169194,0.12675514464482945
5.375488000000001,3.2717693753610155,0.1267419350311539
5.377891999999999,3.265857516778251,0.12674483275056983
5.380280000000001,3.2608768237552654,0.12672608059883184
5.38266,3.2629733681581676,0.12649125237174297
5.3850560000000005,3.267211782934348,0.1261791155474323
5.387444,3.2713104280836682,0.1258830693856853
5.389824000000001,3.2677727572996584,0.12586805257066688
5.392227999999999,3.2662371872620657,0.12579205272385074
5.394612,3.265632782784251,0.12569384835963465
5.396991999999999,3.267449787933433,0.12548608421326468
5.399392000000001,3.2681958578959778,0.12531752564936677
5.401776,3.2688021582316615,0.12516704686629024
5.404156,3.2724814945004006,0.12492154094345229
5.406560000000001,3.2718770900225858,0.12482338733879758
5.4089480000000005,3.2743457214778267,0.12462841912294007
5.411327999999999,3.2756036481195685,0.12448751984872765
5.413732,3.2793755321869247,0.12431277104000012
5.416119999999999,3.282867877000561,0.1241685716345448
5.418495999999999,3.2854290562544195,0.12404805363537676
5.4209,3.290923501814472,0.12384922134286501
5.423287999999999,3.2953470121878863,0.12368604981471536
5.425668,3.302703788867496,0.12344486625167281
5.428063999999999,3.310340104800826,0.12317358074636907
5.430452000000001,3.309968017748488,0.1231326836854083
5.432831999999999,3.312808736256066,0.12298533695931942
5.435236,3.3168601595771428,0.12278848479615517
5.437620000000001,3.3305499995779666,0.12227018026948136
5.44,3.3443796092056504,0.12174373388905438
5.4423960000000005,3.3552759525271387,0.12128993589611949
5.444784,3.3654734477143267,0.12091140298362446
5.447164000000001,3.3755311732746542,0.12054745129530196
5.449555999999999,3.38065353178237,0.12031401076428717
5.451943999999999,3.381631919170391,0.12020751392797087
5.45434,3.385962881745188,0.11997428213473309
5.456735999999999,3.38708103876007,0.11985082595910292
5.459123999999999,3.3894099005884506,0.11967675648095935
5.461508,3.3900162009241344,0.11952846958360036
5.463903999999999,3.3896913357000398,0.11939963096914341
5.4662880000000005,3.390297636035724,0.11925152412414733
5.468672,3.389181374878712,0.11912937843497856
5.471068000000001,3.3884844226022794,0.11896089370366533
5.473452,3.38727561364665,0.11876829831613922
5.4758320000000005,3.387649596556857,0.11856799665653311
5.478232,3.3928191768928153,0.11825252264256239
5.48062,3.392634081295581,0.11811127614434165
5.4830000000000005,3.3912382808848482,0.11801953508319625
5.485404000000001,3.3854189701007016,0.11807639763246604
5.487788,3.3762470841297785,0.11824898323603011
5.490171999999999,3.37121916927855,0.11830209931116639
5.492568,3.369823368867817,0.11821129699948567
5.494956,3.3697780428974435,0.11805881711502111
5.49734,3.374947623233402,0.11775659425838256
5.499744,3.3842611746890547,0.11733809842199029
5.502132,3.396647762077762,0.11684048994081193
5.504512,3.4094536583470503,0.11629592484238724
5.506907999999999,3.418115583496644,0.11586494550138106
5.509295999999999,3.428639839765796,0.11539867562624738
5.511676,3.446241333460836,0.1147580216868165
5.51408,3.4582558337972062,0.11422149596714196
5.516468,3.469059629320078,0.11373124300012374
5.518848,3.481446216708786,0.11323579653518318
5.5212520000000005,3.4922027904034145,0.11283406440566818
5.52364,3.500445406672428,0.11245835706447072
5.526020000000001,3.5081761662622446,0.11205979788218128
5.528416,3.5169778610386992,0.1116246039344255
5.530804,3.523917224695597,0.11122130548412017
5.533187999999999,3.534348933166131,0.11070048935755167
5.535584,3.5461311160770244,0.11011223955159076
5.537972,3.5588444645476955,0.10952066726266438
5.540352,3.56969548189881,0.10897467810371009
5.542748,3.5797551033170065,0.10843588851103224
5.545135999999999,3.585670753615509,0.10800362987645196
5.547516,3.588792907234677,0.10762090612391229
5.549916,3.5928462264136227,0.10723043471670268
5.552300000000001,3.5975511718986266,0.10685149479072316
5.554679999999999,3.6053291533166862,0.1063964245106229
5.557079999999999,3.609242702868772,0.10601344924842511
5.559468000000001,3.6071499501816082,0.10576505417776877
5.561848,3.6117151260397518,0.10540014883772701
5.564247999999999,3.619353337830952,0.10496656583179874
5.566632,3.6263399233160936,0.10452294692740667
5.569027999999999,3.6337458176818145,0.10403970192998219
5.571432,3.6460870791001487,0.10346766172427262
5.573816000000001,3.6582885708916226,0.10291204125714129
5.576196,3.6737028682430117,0.10228014497369275
5.578592,3.694332071900734,0.10153413933606806
5.580976,3.7089549733192047,0.10091160486123875
5.583356,3.72786161548423,0.1001946560809514
5.585748000000001,3.7402500987308067,0.09956852785129601
5.588136,3.7495655460443285,0.09900661646076765
5.590528000000001,3.7556681877979345,0.09851785149325254
5.59292,3.766845966231012,0.09793059494173548
5.595307999999999,3.7808172413434256,0.09731046203326324
5.597688,3.7858489479103934,0.0968490371989936
5.60008,3.790229028171303,0.09637369000114294
5.602468,3.794888647685934,0.09587405711750684
5.604844,3.804483634253176,0.09528681525601523
5.607239999999999,3.8140786208204176,0.09469709462035342
5.609624,3.8168759092154914,0.09421843059603294
5.612004000000001,3.8119443338786185,0.09386031315201086
5.614419999999999,3.8080836937283835,0.09347768991910675
5.616804,3.80329188801837,0.09310630959236989
5.619184000000001,3.790351909695829,0.09289476224985471
5.621575999999999,3.7772721617464278,0.09269497427074744
5.623964000000001,3.7640526441701665,0.0925063688625761
5.626340000000001,3.7436161195411555,0.09245968951537675
5.628755999999999,3.7259730915914795,0.09237870918976719
5.63114,3.7029753877086113,0.09241445718721926
5.633520000000001,3.6844937419977737,0.09240627232818183
5.635935999999999,3.6670830314735756,0.09237355229614806
5.63832,3.6567495583752665,0.09220877590611845
5.640704,3.639478617477928,0.09215908631283734
5.643108,3.6191346406475344,0.09216635025628639
5.645492000000001,3.6067990668028074,0.09203414321425714
5.647872,3.5964655937044983,0.09186536200827741
5.650276,3.587714912472025,0.09169969616123466
5.652664,3.578172835306634,0.0915311594585437
5.65504,3.567839362208325,0.09135913721068947
5.657444,3.563232652095546,0.09111114722182033
5.659832,3.5683569064611307,0.09071910794533292
5.662212,3.572410225640077,0.09035272731046563
5.664612,3.5761840055653025,0.09001019718170097
5.667,3.5839619869833625,0.0895959941443749
5.66938,3.590808802841644,0.08919187690466998
5.67178,3.5927202516473122,0.08886537408122393
5.674168,3.6006380026922318,0.08843522828506682
5.676548,3.6064138833638744,0.08804973467566492
5.678952000000001,3.618056296647907,0.087578473360736
5.681336,3.628767544372162,0.08712034704691683
5.683716,3.6410615839622524,0.08666841889982506
5.686120000000001,3.648000947619151,0.08633647535837767
5.688508000000001,3.6608068438884382,0.08591732375140512
5.690887999999999,3.6728213442248094,0.08549179161735161
5.693292,3.684556305307459,0.08509962454562706
5.695679999999999,3.6940096263899718,0.0847665180521591
5.69806,3.6977361844869545,0.08450286392628314
5.700464,3.700112268143578,0.08428814141725828
5.702848,3.7060732444124542,0.08404864200293956
5.705228,3.7092407240019964,0.08383854754480229
5.707636000000001,3.708264232471844,0.08370476168416659
5.71002,3.708870532807528,0.08357844296332936
5.712400000000001,3.7113391642627684,0.08343434552218226
5.714803999999999,3.715670126837565,0.08327387040925388
5.717192000000001,3.720792485345281,0.0831165774199921
5.719571999999999,3.730850210905609,0.08289101666493404
5.721976,3.736903734973102,0.0827254546088288
5.724360000000001,3.7449593597870128,0.08252862512310605
5.72674,3.7451463512421164,0.08243900268085588
5.729144,3.742120537137304,0.0824125790930025
5.731532,3.7370926222860748,0.08241654281451694
5.733908,3.7332754122483447,0.08238674869156226
5.736316,3.7243830655311423,0.08243928918658863
5.7387,3.7173530499334966,0.08247383850100815
5.74108,3.7081811639625735,0.08255066889003157
5.7434840000000005,3.7019425442978457,0.08258776220641749
5.745868,3.702361853178427,0.08255044511531064
5.748248,3.702781162059007,0.08251312802420377
5.7506520000000005,3.702129535752949,0.08249716295828843
5.75304,3.703480010193308,0.08245168304371558
5.755416,3.704039088700748,0.08240239056974077
5.757823999999999,3.7008735049690755,0.08238747160707192
5.760208,3.6939832589982897,0.0824073563368491
5.762592,3.6813662500419735,0.08249237828151053
5.764984,3.66781807552588,0.08258672551418597
5.767372,3.6493345339571737,0.08274969764089607
5.769752,3.632713323508024,0.08289660183711811
5.772144000000001,3.6163716523125955,0.0830170719334137
5.774528,3.6051051177966382,0.08305653199160261
5.776908000000001,3.5991932592138745,0.08298810264127686
5.779311999999999,3.593421170257971,0.08290703218276027
5.781696,3.5856469805556497,0.08285661411204959
5.784076000000001,3.5798748915997463,0.08277515782607889
5.786472,3.5758253641365387,0.08268823300142573
5.788855999999999,3.5712639799941335,0.08257145640536934
5.791236,3.5626983943588946,0.08251721821418412
5.79364,3.5502683768576815,0.08251156844785403
5.796023999999999,3.536907193796691,0.08251532225743814
5.798404,3.5195418092428663,0.0825839256444614
5.800808,3.5000345543157647,0.08269565310692933
5.803191999999999,3.4782456593885254,0.08286995102763633
5.805572,3.457248160394204,0.08305196880318538
5.807968000000001,3.4390441580792186,0.08320769812564102
5.810352,3.4254959835631245,0.08331636246978934
5.8127320000000005,3.415160614606946,0.08335296934520091
5.815136000000001,3.4053371023299652,0.0834237316905328
5.817524000000001,3.3976554604262614,0.08344562054161038
5.819903999999999,3.392627545575032,0.08345009736655279
5.822308,3.3853179907236663,0.0835138116635022
5.824695999999999,3.375726795872163,0.08363454196061847
5.827076,3.369208636953714,0.0836995304061542
5.829471999999999,3.3644130395279626,0.08375994544620093
5.831860000000001,3.363342104341324,0.08378248350701989
5.834239999999999,3.35961744210221,0.0838194118347016
5.836644,3.358266967661851,0.08386791066512661
5.839028000000001,3.3610604643411857,0.08384059654513985
5.841408,3.364785126580299,0.08380398026626285
5.843812,3.368649558446273,0.08375390914849956
5.8462,3.3757267958721617,0.08363465645219881
5.84858,3.383315889977249,0.0835445850832225
5.850984,3.397982221508225,0.08333445202329035
