Time,Force,Position
9.083836,0.0007146747976503334,0.0
9.086232,0.0009528997302004445,0.0
9.08862,0.0033329950360276184,0.0
9.091004,0.004502385528356049,0.0
9.0934,0.008744811953739863,0.0
9.095788,0.014197943192622416,0.0
9.098168,0.01951130480464476,0.0
9.100571999999998,0.022031169737332146,0.0
9.102959999999998,0.02441126504315932,0.0
9.10534,0.0269311299758467,0.0
9.107736,0.0269311299758467,0.0
9.110124,0.0269311299758467,0.0
9.112508,0.0269311299758467,0.0
9.114904,0.0269311299758467,0.0
9.117292,0.0269311299758467,0.0
9.119672,0.0269311299758467,0.0
9.122068,0.0269311299758467,0.0
9.124456,0.02669290504329659,0.0
9.126836,0.02669290504329659,0.0
9.129232,0.026454680110746483,0.0
9.13162,0.026216455178196367,0.0
9.134004,0.02597823024564626,0.0
9.1364,0.023598134939819083,0.0
9.138784,0.022428744447490656,0.0
9.141184,0.01818631802210684,0.0
9.143579999999998,0.012733186783224286,0.0
9.145967999999998,0.007419825171201941,0.0
9.148352,0.004899960238514557,0.0
9.150747999999998,0.0025198649326873836,0.0
9.153135999999998,0.0,0.0
9.15552,0.0,0.0
9.157915999999998,0.0,0.0
9.160303999999998,0.0,0.0
9.162684,0.0,0.0
9.165079999999998,0.0,0.0
9.167467999999998,0.0,0.0
9.169852,0.0,0.0
9.172252,0.0,0.0
9.174644,0.0,0.0
9.177023999999998,0.0,0.0
9.17942,0.0,0.0
9.181812,0.0,0.0
9.184191999999998,0.0,0.0
9.186592,0.0,0.0
9.18898,0.0,0.0
9.191359999999998,0.0,0.0
9.19376,0.0,0.0
9.196148,0.0,0.0
9.198527999999998,0.0015414775446659112,0.0
9.200924,0.005224825462608884,0.0
9.203312,0.007977007820773535,0.0
9.205692,0.009798024619159866,0.0
9.208087999999998,0.01427276847002095,0.0
9.210475999999998,0.020889382694159093,0.0
9.21286,0.028437162478075557,0.0
9.215255999999998,0.038918208568187194,0.0
9.217639999999998,0.04860785872538072,0.0
9.220024,0.05722657369593571,0.0
9.222419999999998,0.06384318792007385,0.0
9.224807999999998,0.07125119807713011,0.0
9.227188,0.07758827304754783,0.0
9.229584,0.08364580876424513,0.0
9.231972,0.09063451004072075,0.0
9.234352,0.10069624725025175,0.0
9.236752,0.1126203155793394,0.0
9.239136,0.12375298797550893,0.0
9.241535999999998,0.13074168925198454,0.0
9.243932,0.13493689384912522,0.0
9.24632,0.1333954163044593,0.0
9.248699999999998,0.12971206838651633,0.0
9.251096,0.12695988602835168,0.0
9.253483999999998,0.12513886922996537,0.0
9.255864,0.12066412537910429,0.0
9.258264,0.11404751115496614,0.0
9.260647999999998,0.10649973137104968,0.0
9.263032,0.09601868528093804,0.0
9.265427999999998,0.08632903512374451,0.0
9.267815999999998,0.07771032015318952,0.0
9.2702,0.07109370592905137,0.0
9.272595999999998,0.06368569577199512,0.0
9.274983999999998,0.057348620801577405,0.0
9.277368,0.0512910850848801,0.0
9.279763999999998,0.04430238380840448,0.0
9.282151999999998,0.03424064659887347,0.0
9.284536,0.022316578269785822,0.0
9.286931999999998,0.011183905873616286,0.0
9.289324,0.0041952045971406626,0.0
9.291704,0.0,0.0
9.294099999999998,0.0,0.0
9.296492,0.0,0.0
9.298871999999998,0.0,0.0
9.301272,0.0,0.0
9.303655999999998,0.0,0.0
9.306039999999998,0.0,0.0
9.308444,0.0,0.0
9.310832,0.0,0.0
9.313216,0.0,0.0
9.315612,0.0,0.0
9.318,0.0,0.0
9.320384,0.0,0.0
9.32278,0.0,0.0
9.325172,0.0,0.0
9.327556,0.0,0.0
9.329952,0.0,0.0
9.33234,0.0,0.0
9.334724,0.0,0.0
9.33712,0.0,0.0
9.339508,0.0,0.0
9.341892,0.0,0.0
9.344291999999998,0.0,0.0
9.34668,0.0,0.0
9.349064,0.0,0.0
9.351463999999998,0.0,0.0
9.353851999999998,0.0,0.0
9.356232,0.0,0.0
9.358627999999998,0.0,0.0
9.361015999999998,0.0,0.0
9.363396,0.0,0.0
9.365792,0.0,0.0
9.36818,0.0,0.0
9.37056,0.0,0.0
9.372956,0.0,0.0
9.375344,0.0,0.0
9.377728,0.0,0.0
9.380131999999998,0.0,0.0
9.382516,0.0,0.0
9.3849,0.0,0.0
9.387296,0.0,0.0
9.38968,0.0,0.0
9.392064,0.0010749468358421306,0.0
9.39446,0.0023822110971615275,0.0
9.396848,0.006994828717013579,0.0
9.399228,0.014213951561097228,0.0
9.401624,0.023108414069634157,0.0
9.404012,0.034050303294961844,0.0
9.406392,0.04862241110291651,0.0
9.408796,0.06975800379969334,0.0
9.411184,0.09689800287785147,0.0
9.413564,0.13362730094964398,0.0
9.415964,0.17780402764179382,0.0084229489459745
9.418348,0.22914864370058058,0.01688055676620062
9.420728,0.28500742207352947,0.025616861127572013
9.423132,0.34803408981311523,0.03434576306112588
9.42552,0.4146437543070849,0.043378495588949066
9.4279,0.48804922111535387,0.052298182661557016
9.4303,0.5699730517306187,0.06101377819198727
9.432684,0.6584131454064626,0.0697261037971217
9.435068,0.7593758043821359,0.07799940598138723
9.43746,0.8660633304854701,0.08632143624440523
9.439848,0.975678215387927,0.09476163686393281
9.442227999999998,1.093346829246425,0.10302153855762158
9.444624,1.2101296035155185,0.11143399337285442
9.447012,1.329007026329646,0.11983293311192061
9.449395999999998,1.449047932129029,0.1283058244428856
9.451792,1.5744435138616046,0.13655383672722565
9.45418,1.7021679574225608,0.14461431898232582
9.456576,1.822210759079813,0.15283546694608996
9.458972,1.9395545077142167,0.16096583821553284
9.46136,2.042094051048654,0.16936955876517615
9.46374,2.136255000202955,0.16939075517390972
9.466136,2.220454563311284,0.16950189966237594
9.468524,2.302142064851868,0.16922966831549208
9.470904,2.3760100507197572,0.16896385338685968
9.473304,2.446434809460123,0.16837310668591432
9.475688,2.509784226632468,0.16793765092897273
9.478072,2.56368411443804,0.16774801169786854
9.480475999999998,2.6089258688097554,0.16769040288431508
9.482864,2.6367096908290297,0.16834341098668779
9.485244,2.6599793505341416,0.1688554178844657
9.487647999999998,2.6781757694176505,0.16931859002105043
9.490031999999998,2.6880861419196407,0.16996206108347392
9.492412,2.695577000652502,0.17045297902435333
9.494815999999998,2.69743554005632,0.17100475312599014
9.497203999999998,2.698177818303127,0.17141129514253242
9.499588,2.6900277498327307,0.17218184346742516
9.501983999999998,2.67228648651083,0.17343143679116504
9.504371999999998,2.659527812069784,0.17429645072905436
9.506755999999998,2.6442551802031242,0.17522709596465647
9.509151999999998,2.6368511816952713,0.17576580220109478
9.511539999999998,2.631029975053255,0.17626274999851146
9.51392,2.6286538913966315,0.1766337702596263
9.516315999999998,2.629071304419343,0.17686726589152033
9.518703999999998,2.629581265240671,0.17718687891481824
9.521084,2.6313944786741157,0.1775053993457676
9.52348,2.6339990880404778,0.17780230419702456
9.525868,2.6348339140859007,0.1782733773947864
9.528248,2.6412557334899933,0.17848259910647915
9.530651999999998,2.6544752510662546,0.17833540683443133
9.533039999999998,2.6660647549484366,0.1783427094040176
9.53542,2.681378921069732,0.17817627409706824
9.537815999999998,2.695202843123808,0.1781333198867938
9.540204,2.713403053723056,0.1779258812662373
9.542588,2.735839783240614,0.17757345600033225
9.544983999999998,2.7590679086910908,0.17721710558922554
9.547371999999998,2.7841583652611237,0.17676009709778898
9.549752,2.8171174551899636,0.17588472709631653
9.552151999999998,2.8450939562379487,0.1753809787349719
9.554539999999998,2.874373709898049,0.17488512134364528
9.55692,2.9021632194909306,0.17452692031399472
9.559316,2.931395751322788,0.17415312258172086
9.561704,2.964073406140039,0.17367754762820933
9.564088,2.9897663713300173,0.17363771760669622
9.566484,3.019044229132249,0.17346043363458552
9.568872,3.0499048788003167,0.1732548866347183
9.571256,3.0834192555208593,0.17296325916017696
9.57366,3.1269441359734866,0.17221996765873665
9.576047999999998,3.167256210866198,0.17165887051949644
9.578431999999998,3.2045877976244714,0.17131061300691364
9.580828,3.247506377741414,0.1707643682666597
9.583215999999998,3.289726109724056,0.17032646996224823
9.585596,3.3388833095057264,0.16960821069190019
9.587996,3.383105142234785,0.1691139571783477
9.590383999999998,3.425604413471147,0.16869091887128415
9.592764,3.4671725191477307,0.16831708607322302
9.595159999999998,3.512512508891671,0.16775391927034386
9.597547999999998,3.5577599508369944,0.16717290082345143
9.599932,3.6051964849838374,0.16640548331331798
9.602327999999998,3.6494674353990084,0.1656940113300749
9.604715999999998,3.6964393346948974,0.16485154685936385
9.6071,3.741037046192032,0.164053062037547
9.609508,3.7841917354501904,0.16329926053502944
9.611896,3.8296752865367294,0.1623385949788477
9.614275999999998,3.875345829078372,0.16132120541060327
9.616672,3.916128226395646,0.16040019132230082
9.61906,3.954955744794746,0.15949537501400052
9.621439999999998,3.986333938715619,0.15883941691277573
9.623836,4.019761455211152,0.15805020244612528
9.626224,4.059382265401039,0.1569863667650352
9.628604,4.09183329036642,0.15611358182930182
9.630999999999998,4.119675709361152,0.1552895410602951
9.633387999999998,4.1388580990641595,0.1547287194766922
9.635768,4.159530732834386,0.15408560799358842
9.638163999999998,4.179691509925415,0.15343339344473284
9.640551999999998,4.201342531083662,0.15271539402047005
9.642936,4.217778645935578,0.1521828280061533
9.645331999999998,4.227928919294523,0.15186514061695114
9.647719999999998,4.237008257466828,0.15158614432804873
9.650104,4.24808969638555,0.1512460840949566
9.652499999999998,4.2546550771322424,0.1510144115042924
9.654887999999998,4.262850471573013,0.1506949308197829
9.657268,4.269602843774806,0.1503865726819249
9.659667999999998,4.279428251909657,0.14999011308210142
9.662052,4.283107588178398,0.1497787275838015
9.664436,4.292653457059527,0.14941224590204621
9.666831999999998,4.301780017060077,0.14908682169255222
9.66922,4.312257051500985,0.14870339319942782
9.671615999999998,4.31751917963556,0.14847792407865826
9.67402,4.315704070344246,0.14845356734803472
9.676404,4.318032932172627,0.14830697525910672
9.678783999999998,4.325297161053619,0.14802977776605009
9.681184,4.337916065867805,0.14758200217000447
9.683568,4.347881243629515,0.14718453934074313
9.685952,4.357846421391225,0.14679057289800848
9.688348,4.361805296913684,0.1465607330912867
9.690736,4.367906042809421,0.1462638227086955
9.693115999999998,4.377219594265074,0.14586454315897746
9.695512,4.39053734721356,0.14536332149045003
9.697904,4.405065804975545,0.14482308577296985
9.700283999999998,4.4202458890435885,0.14428638825781695
9.70268,4.437428073858047,0.14370897248722145
9.705072,4.450606057179674,0.14323344036881863
9.707451999999998,4.4596400693816065,0.14287782727056386
9.709848,4.473888987889871,0.14237450846741362
9.71224,4.482550913039464,0.14199346591864556
9.714619999999998,4.487767715203667,0.1416642694715934
9.717016,4.491913582181231,0.14136815291886795
9.719404,4.502345290651764,0.14089659160975201
9.721787999999998,4.515198408749296,0.14033579873095253
9.724184,4.5252580301674925,0.13983658694895945
9.726572,4.5321048460257725,0.13943314487097894
9.728955999999998,4.537229100391357,0.1390590845104572
9.731356,4.547288721809554,0.13857065390789874
9.73374,4.5564171776679725,0.13810288237680934
9.736123999999998,4.569829374272945,0.13751185164846116
9.73852,4.579516908638805,0.13699289320036978
9.740908,4.585479780765551,0.13654661413805566
9.743287999999998,4.585715889906767,0.13622590117749525
9.745684,4.585160603115064,0.1359140753514666
9.748072,4.584884855577081,0.13557910321763908
9.750455999999998,4.580325367292547,0.1353629897113995
9.752852,4.578978684567926,0.13505749756286659
9.75524,4.576840605910387,0.13475666860491442
9.757623999999998,4.572700426506431,0.1345041929359999
9.760028,4.569211873408533,0.13425607832520736
9.762416,4.572800557736525,0.13383812826619704
9.764796,4.5715936446387655,0.1335171542672557
9.767192,4.564100890048034,0.1333624961973348
9.769584,4.556328596203582,0.133230678057213
9.771964,4.5474853671724915,0.13312818080369365
9.77436,4.535708871835206,0.13309355705492443
9.776748,4.519788405378228,0.13317010745299554
9.779127999999998,4.497721867055137,0.13340522713996433
9.781528,4.473792997612491,0.13367921747306366
9.783912,4.448373884102624,0.13401699584665783
9.786295999999998,4.426539663205012,0.13429493243776713
9.788696,4.407359169359875,0.13453237836955326
9.791084,4.387247509954959,0.13479454954854703
9.793468,4.363923044990126,0.13515091453875816
9.795864,4.339527644838656,0.1355383407616984
9.798252,4.3143408487542665,0.13593773404538767
9.800636,4.288734743789298,0.13637191425678202
9.803032,4.265922135503664,0.13674830777798017
9.80542,4.241759052777671,0.13718265518085937
9.807804,4.217595970051677,0.13762111273134725
9.8102,4.1859363410192145,0.13827902796527758
9.812588,4.162005575718698,0.13875853099447544
9.814968,4.142079011911016,0.13913845366199346
9.81736,4.122292217730194,0.13950364718881117
9.819748,4.106230085788485,0.13978966374569005
9.822144,4.101109623138639,0.1397986247697192
9.82454,4.102367549780381,0.13968664813575335
9.826924,4.109492009034512,0.13943505292074276
9.829304,4.118199260154482,0.1391681307633014
9.831708,4.124252784221976,0.13894404771012547
9.834096,4.132308409035886,0.1386723608281363
9.836476,4.139432868290019,0.13841901937369885
9.838879999999998,4.149071284969766,0.13812955874986732
9.841264,4.160432263142209,0.13781064997236514
9.843644,4.1753781339269045,0.13742887568484294
9.846044,4.191906796577437,0.13702982260437918
9.848432,4.208155919974248,0.13665495562361493
9.850812,4.223054568930703,0.13633896577118468
9.853215999999998,4.239955318633573,0.13597002588595397
9.855603999999998,4.258718399455999,0.13556135022035629
9.857984,4.2834877825176765,0.13499399419326133
9.86038,4.305044360019439,0.13453173292864865
9.862768,4.325390232707701,0.13411621107136887
9.865148,4.344245861328744,0.13376891254950218
9.867551999999998,4.363753116255846,0.13343536080891058
9.869939999999998,4.373110097824003,0.13337049017769723
9.87232,4.380884287526324,0.13332024936928466
9.874724,4.387727311668867,0.13329052293648855
9.877112,4.395781040624907,0.1332194178654075
9.879492,4.408630367006701,0.13304655891026
9.881887999999998,4.41761526152252,0.13295868348424916
9.884275999999998,4.430464587904314,0.13279011529266757
9.886656,4.446526719846021,0.1325373014433519
9.889055999999998,4.4658016573476464,0.13220210853317618
9.891443999999998,4.482283098169936,0.13192186620809024
9.893824,4.499555934925144,0.13163593097367016
9.896219999999998,4.5215318213074855,0.13121011471253297
9.898607999999998,4.54313562063749,0.13075347640335588
9.900988,4.562737319221077,0.13034101811071921
9.903384,4.5863432192974996,0.12985134980458177
9.905768,4.60408258676153,0.12948169866611323
9.908152,4.626105694972115,0.12901019595881053
9.910548,4.65027067355598,0.12848816833988003
9.912936,4.677508688072898,0.1278967510419291
9.915316,4.7002306444177835,0.1273745888845718
9.917723999999998,4.724163305576169,0.12680327452100995
9.920108,4.751029233040748,0.12618540930611766
9.922488,4.7751016638259935,0.1256183367073874
9.924891999999998,4.796240828305043,0.12510818193628928
9.927279999999998,4.817519762410954,0.12459577812844808
9.929664,4.840009401330363,0.12404572401373885
9.932059999999998,4.859053917264379,0.12354076662744373
9.934444,4.875304936519061,0.1230873060671156
9.936824,4.885829192788213,0.12273435889677295
9.939232,4.896632988311085,0.12236068366119335
9.941615999999998,4.909625876035475,0.12188210240404254
9.944,4.917403857453536,0.12152212323506655
9.946395999999998,4.92811510517779,0.12111233979473542
9.948779999999998,4.94352940252918,0.12057918403456247
9.951164,4.949492274655926,0.12019373997998875
9.953559999999998,4.960809822715864,0.11968857085117089
9.955947999999998,4.964398507043854,0.11931328863268315
9.958328,4.969477435439066,0.11888934161187825
9.960731999999998,4.96873705305013,0.11850434656417466
9.963119999999998,4.967624583608855,0.11808824911665644
9.965504,4.969724919727496,0.11760111559404077
9.967899999999998,4.966378032114329,0.11718463315710949
9.970287999999998,4.963310683754881,0.11674645741727224
9.972668,4.963735680209069,0.11621781570113018
9.975067999999998,4.960436014424145,0.11574120068093993
9.977455999999998,4.959417988639357,0.11521110005607413
9.979836,4.958399962854569,0.11467982984657385
9.982231999999998,4.956450771510004,0.11416061036384538
9.984619999999998,4.955432745725216,0.11362422518478403
9.987,4.954554489567289,0.11307828234521154
9.989399999999998,4.946179687102893,0.11268986417367378
9.991787999999998,4.937013488705577,0.11230200201131259
9.994168,4.925984959188704,0.11193943921784312
9.996572,4.906528717805584,0.1117460611267829
9.99896,4.891076677915297,0.11148102617678664
10.00134,4.871480666905317,0.11129552288263976
10.003735999999998,4.853886756641754,0.1110740174184479
10.00612,4.827213508205884,0.11101802542967676
10.0085,4.807290736113941,0.11091129892157536
10.010908,4.792815187753808,0.11073704426856085
10.013291999999998,4.779131035326591,0.1105594750693232
10.015676,4.7681006099518495,0.11035450049875421
10.018071999999998,4.756790645323388,0.11016932506608935
10.020455999999998,4.7439904366277075,0.11003634986986795
10.022836,4.733983724611361,0.10986664272407964
10.025239999999998,4.718482567034963,0.1098176291641925
10.027627999999998,4.702422330951124,0.10980998774561347
10.030008,4.687944886733121,0.10979850992435354
10.0324,4.675329773634673,0.10976317007091495
10.034788,4.6604330205360895,0.1097827232998805
10.037168,4.650983491169316,0.10974162552370773
10.039568,4.642976984041518,0.10970777537996268
10.041956,4.632549067286722,0.10974084170051318
10.044336,4.626776978330819,0.1097130762490251
10.046732,4.626312343479864,0.10963175877549229
10.04912,4.625568169375189,0.10957122507105707
10.051519999999998,4.62719818306927,0.10950512879714225
10.053916,4.636277521241575,0.1093363548987896
10.056304,4.643774067548045,0.10917403902928233
10.058683999999998,4.647918038667739,0.10909306485057617
10.061088,4.648988973854377,0.10907030577137572
10.063476,4.646707333854239,0.10912657076068855
10.06586,4.646008485719937,0.10917956493734556
10.068256,4.644890328705055,0.10926440674847972
10.070644,4.641350762063177,0.10941619435550204
10.073023999999998,4.641535857660412,0.10951939521586436
10.07542,4.642791888444284,0.109599644129158
10.077808,4.643116753668379,0.10969219748936998
10.080191999999998,4.645303950012029,0.10975979254583539
10.082588,4.6504244126618755,0.10977994293184194
10.084976,4.65675558012522,0.10976709718710505
10.08736,4.667370488335119,0.10966576942111586
10.089756,4.681710058784131,0.10951594469638987
10.092144,4.698331269233281,0.1093127614468547
10.094528,4.7092257166969,0.10919357179028927
10.096924,4.727197401586409,0.10895499589948433
10.099312,4.748381892035833,0.10865704512068626
10.101691999999998,4.768635216925479,0.10837341975281817
10.104088,4.787538067374765,0.10813246034642403
10.106476,4.806440917824053,0.10789058813974199
10.108859999999998,4.826414703459978,0.10762707680226957
10.111256,4.848670129096041,0.10730827265742472
10.113644,4.870134158799185,0.10699120181884599
10.116027999999998,4.890294935890212,0.10665404194971943
10.118424,4.9148792233546565,0.10622415464152149
10.120816,4.938951654139902,0.10577727470676893
10.123195999999998,4.966236890485063,0.10527336757517147
10.125592,4.9958037668303605,0.10472302258955782
10.12798,5.023787851309822,0.10418074878342153
10.130359999999998,5.050840770229506,0.10365215364357017
10.13276,5.075100192469855,0.10315813331553195
10.135144,5.0933533124709545,0.10276022372507106
10.137527999999998,5.110442949486798,0.10233802441496538
10.139924,5.127672356129501,0.10191292310578212
10.142312,5.1450415323990635,0.10147643069591863
10.144695999999998,5.155473240869598,0.10114198984421241
10.147092,5.165253323034073,0.10080559195449824
10.14948,5.173450613332713,0.10046989200877131
10.151863999999998,5.182206982138794,0.10009742417829778
10.154264,5.192453595012094,0.0996798668087519
10.156652,5.2019088119524755,0.09926225248732443
10.159031999999998,5.2105726329599396,0.09884452296657972
10.161428,5.220726698034623,0.0983826123735337
10.163816,5.23460542534842,0.0978856042905958
10.166195999999998,5.242617620049825,0.09746253353451541
10.1686,5.25170074993787,0.09702359840409086
10.170984,5.257710843892858,0.0966328032631916
10.173363999999998,5.256503930795098,0.09634674406392556
10.175768,5.255948644003396,0.09607096073313623
