Time,Force,Position
9.293012,0.06990154368542822,0.0
9.2954,0.06375547181931746,0.0
9.297796,0.056026608087370484,0.0
9.300192,0.047646118049365596,0.0
9.30258,0.040868141363556945,0.0
9.30496,0.03460202135694599,0.0
9.30736,0.031269167656530206,0.0
9.309748,0.027796544329254207,0.0
9.312128,0.02339275544219989,0.0
9.314528,0.01992013211492389,0.0
9.316916,0.015236803974149154,0.0
9.319296,0.018542157332681802,0.0
9.321699999999998,0.020497036250855503,0.0
9.324087999999998,0.0252729121902473,0.0
9.326468,0.029257392196720987,0.0
9.328872,0.03217093701655614,0.0
9.33126,0.0384370570231671,0.0
9.33364,0.04001984888900331,0.0
9.336035999999998,0.04416382000869723,0.0
9.338423999999998,0.049658265568750096,0.0
9.340804,0.05100874000910906,0.0
9.343199999999998,0.0517075881434101,0.0
9.345588,0.05519993295704612,0.0
9.347972,0.05682994665112549,0.0
9.350367999999998,0.061001418112702537,0.0
9.352756,0.06517288957427958,0.0
9.35514,0.06948413066271684,0.0
9.357535999999998,0.07472653731093241,0.0
9.359923999999998,0.07968940470542757,0.0
9.362304,0.08637483359261916,0.0
9.3647,0.09184955766631202,0.0
9.367088,0.08933560024069746,0.0
9.369468,0.08775280837486123,0.0
9.371868,0.08337651982969005,0.0
9.374252,0.08086256240407552,0.0
9.376636,0.07794901758424035,0.0
9.379036,0.0716828975776294,0.0
9.381424,0.06648771275765697,0.0
9.383808,0.062083923870602666,0.0
9.386204,0.05539849498341108,0.0
9.388588,0.05071516684263634,0.0
9.390968,0.04682323463477971,0.0
9.39336,0.04186036724028456,0.0
9.395748,0.04153360615832099,0.0
9.398124,0.042277780262995945,0.0
9.400539999999998,0.041951019181032376,0.0
9.402924,0.04348658921862544,0.0
9.4053,0.04315982813666187,0.0
9.407696,0.04446308074877767,0.0
9.41008,0.04218144074864039,0.0
9.41246,0.0461856422414741,0.0
9.414872,0.05433381485400171,0.0
9.417256,0.06462385783980638,0.0
9.419636,0.0761246056391098,0.0
9.42204,0.08441254787849763,0.0
9.424424,0.09216891195232774,0.0
9.42682,0.09899411046637954,0.0
9.429211999999998,0.1047483737937928,0.0
9.431599999999998,0.11129403305412418,0.0
9.43398,0.11690852675467724,0.0
9.436372,0.12066068933567366,0.0
9.43876,0.12241075117025323,0.0
9.441152,0.12402104337797261,0.0
9.443547999999998,0.12378872595249533,0.0
9.445932,0.11887308038624332,0.0
9.448312,0.11502837000662987,0.0
9.450708,0.10918155888059954,0.0
9.453092,0.10426591331434752,0.0
9.455472,0.09799979330773656,0.0
9.457888,0.09359600442068224,0.0
9.460271999999998,0.08411707885415569,0.0
9.462652,0.07449838366076893,0.0
9.465047999999998,0.06287758772096531,0.0
9.467432,0.05097725252744128,0.0
9.469827999999998,0.04121878770719431,0.0
9.472232,0.0334624236333642,0.0
9.474616,0.026637225119312397,0.0
9.476995999999998,0.024867441798372816,0.0
9.4794,0.021375096984736802,0.0
9.481784,0.017742982544240574,0.0
9.484163999999998,0.016904364783079315,0.0
9.486568,0.019930178887891548,0.0
9.488952,0.019091561126730282,0.0
9.491331999999998,0.017481268919010928,0.0
9.493728,0.017481268919010928,0.0
9.496111999999998,0.017481268919010928,0.0
9.498492,0.017481268919010928,0.0
9.500896,0.017481268919010928,0.0
9.503279999999998,0.017481268919010928,0.0
9.50566,0.017481268919010928,0.0
9.508064,0.017481268919010928,0.0
9.510447999999998,0.017481268919010928,0.0
9.512828,0.01890456967162692,0.0
9.515223999999998,0.020467640051103124,0.0
9.517608,0.020467640051103124,0.0
9.520003999999998,0.020467640051103124,0.0
9.5224,0.020467640051103124,0.0
9.524788,0.01648316004462944,0.0
9.527164,0.013429845597934073,0.0
9.529568,0.01144746633787724,0.0
9.531956,0.008533921518042087,0.0
9.534335999999998,0.0037580455786502902,0.0
9.53674,0.002986371132092197,0.0
9.539124,0.0045494415115684,0.0
9.541503999999998,0.010396252637598727,0.0
9.5439,0.014380732644072412,0.0
9.546283999999998,0.01850498227740631,0.0
9.548664,0.021977605604682305,0.0
9.551056,0.025589998558818508,0.0
9.553444,0.027340060393398074,0.0
9.555824,0.027340060393398074,0.0
9.558236,0.027340060393398074,0.0
9.560624,0.02591675964078208,0.0
9.563004,0.024353689261305878,0.0
9.565408,0.024353689261305878,0.0
9.567796,0.024353689261305878,0.0
9.570175999999998,0.024353689261305878,0.0
9.57258,0.024353689261305878,0.0
9.574964,0.02435368926130588,0.0
9.577343999999998,0.02435368926130588,0.0
9.579748,0.02435368926130588,0.0
9.582136,0.02435368926130588,0.0
9.584516,0.02435368926130588,0.0
9.58692,0.022790618881829677,0.0
9.589308,0.016943807755799352,0.0
9.591688,0.012959327749325665,0.0
9.594091999999998,0.013046187974334999,0.0
9.596476,0.01713535383430878,0.0
9.598856,0.024295659769468715,0.0
9.601259999999998,0.04490969656423651,0.0
9.603644,0.07658355493349782,0.0
9.606028,0.1171478641620925,0.0
9.608423999999998,0.16474029313046387,0.010056296979193427
9.610808,0.2174985107190553,0.020253772920254407
9.613188,0.2783557832340619,0.030152145358027755
9.615591999999998,0.3477314195560644,0.03968934260155661
9.61798,0.4266963548717012,0.04882548106013748
9.62036,0.517112920300529,0.05751510554155546
9.622763999999998,0.6179101806559095,0.06594205225836315
9.625151999999998,0.7241527688852304,0.07446399060427883
9.627532,0.8379825553617688,0.08291890397465732
9.629927999999998,0.9606102448990234,0.09122261381024144
9.632315999999998,1.0901735063774376,0.09947836890992343
9.634696,1.2249497783043153,0.10775019359618447
9.637092,1.372016298105545,0.11569792283725336
9.63948,1.5253667635418764,0.12361816154821108
9.64186,1.6762740065829351,0.13165993139142115
9.644252,1.8316047599974081,0.139570371276209
9.64664,1.9935008941585723,0.14728707656539908
9.649015999999998,2.1431993282440014,0.15515318904930095
9.65142,2.2852633422539697,0.16306068673243507
9.653804,2.423604589882694,0.1708433171489717
9.656183999999998,2.557012366316676,0.1685637975293294
9.658575999999998,2.6873490026754707,0.16613737981155355
9.660963999999998,2.8107500670931067,0.16403160055411045
9.663344,2.92716833774134,0.16234141818602543
9.665756,3.0370231235007514,0.1610190980928917
9.668144,3.13444789175895,0.16024766665157986
9.670524,3.222515678448991,0.1597739233420967
9.672916,3.309095116929682,0.15914418795532723
9.675304,3.3953969120145215,0.15839102318244147
9.6777,3.4760663877703184,0.15774669154154242
9.680096,3.554036810503266,0.1570724570247437
9.68248,3.6285167842804467,0.15634925083522871
9.68486,3.688285100556278,0.1560499644519707
9.687264,3.7416297015701474,0.15579160735816147
9.689652,3.794928976613643,0.15537802047660057
9.692028,3.8392433571413185,0.15514605099850443
9.694424,3.8709879505409215,0.1551799778968037
9.696812,3.902826987597011,0.15504786268938348
9.699191999999998,3.9342013898021455,0.15482293670773317
9.701596,3.9556125101034394,0.15485959311226064
9.703984,3.973066650740142,0.15495297643085898
9.706364,3.98963684764531,0.1549984246768385
9.708764,4.0042521656323045,0.15503362284214156
9.711152,4.016400748021927,0.15503994202504484
9.713532,4.023381645933461,0.15516001043014474
9.715936,4.032411866419653,0.15513520871053318
9.71832,4.036693711308338,0.15518136928576637
9.7207,4.03329391429332,0.15539867051138037
9.723096,4.014855698694987,0.15607187778675452
9.72548,3.991389568245426,0.15684935233282335
9.727859999999998,3.9578203862651637,0.15793182619097795
9.730256,3.9221093339116235,0.15909767317045864
9.732644,3.8886799215582215,0.16018057370869418
9.735024,3.8560419051377375,0.16124981038338954
9.737415999999998,3.8223329535306143,0.16235252228856353
9.739803999999998,3.792767973043185,0.163288871682372
9.742184,3.768789985914426,0.16405681143044443
9.744596,3.7453238554648647,0.16484138608952462
9.746984,3.7189244587091084,0.16572494358808723
9.74938,3.698391594565742,0.16642367544639508
9.751775999999998,3.680652227101711,0.167039999237747
9.754163999999998,3.6615623851973202,0.16772600855277234
9.756544,3.6480595366516004,0.16823178276233372
9.758947999999998,3.6344169184790207,0.1687575944986491
9.761331999999998,3.623055940306577,0.16918723944263295
9.763716,3.6115551925072737,0.16962741367733314
9.76612,3.607783308439917,0.16981452741526573
9.768508,3.611740288104508,0.16975050445702303
9.770888,3.6212842611277676,0.1695056567215185
9.773284,3.633621730830363,0.16917113704053668
9.775671999999998,3.6546192298246836,0.16852774231797724
9.778052,3.672171605833612,0.16795827291013277
9.780447999999998,3.6907949170291783,0.16734405809557906
9.782835999999998,3.7098375371053254,0.16668776565997054
9.785216,3.728508070129135,0.1660023520196649
9.787612,3.7425227753540526,0.16547310685149558
9.79,3.7506709479665807,0.16515446586455074
9.792384,3.7583998116985273,0.16488134052259257
9.794783999999998,3.7694340287890076,0.16453342454976022
9.797168,3.7841929081186003,0.16407964240882245
9.799548,3.7970894563286364,0.16368464573622882
9.801944,3.8079839037922554,0.16335865662995094
9.804328,3.813011818643485,0.16324485467027683
9.80672,3.8232546398010463,0.16292994541404848
9.809124,3.835359792078165,0.16256253265574036
9.811512,3.846673548422365,0.16221071624668362
9.813892,3.8519810025273142,0.16207390857233445
9.816296,3.8502112192063755,0.16219007200371258
9.81868,3.855518673311325,0.16205608282257294
9.82106,3.8597551922296356,0.16196425898136504
9.823451999999998,3.864411020028527,0.16183312027793414
9.825839999999998,3.8777268771191435,0.16143875639704125
9.82822,3.890391107903703,0.1610449800404932
9.830623999999998,3.905057439434678,0.16059506583404629
9.833007999999998,3.9185130661521557,0.16019802746533965
9.835388,3.9326203191756917,0.1597981554347574
9.837792,3.9488694425725033,0.1593079646519379
9.840175999999998,3.964606709290118,0.15879651533481592
9.84256,3.9776902489552577,0.15835054968839296
9.844955999999998,3.985978191194645,0.1580585607307498
9.84734,3.9971993997402278,0.15767681309963957
9.84972,4.013775284219003,0.15709852663886073
9.852116,4.029420003138,0.15653745257412785
9.8545,4.041712146870222,0.1561216588935045
9.85688,4.051722650602306,0.15580087850095956
9.859296,4.060522449520891,0.1555319185242548
9.861679999999998,4.074117845865229,0.15512375447639573
9.864064,4.092788378889039,0.15454397243931733
9.866464,4.105592379300457,0.15415277325986718
9.868852,4.1194673148985155,0.15372412666212018
9.871232,4.132131545683074,0.15335800992238152
9.873636,4.1440043805347155,0.15301693544582248
9.876024,4.155457906505776,0.15271583758186802
9.878403999999998,4.161696526170504,0.15258256643056148
9.880795999999998,4.171659808074345,0.15236013191410902
9.883183999999998,4.184416586657521,0.15207015636575125
9.885564,4.199035696360253,0.15173493739494637
9.887968,4.2165880723691815,0.15132124111676842
9.890356,4.238424189124663,0.15077161263584754
9.892736,4.259608679574089,0.15021777040611664
9.895131999999998,4.279862004463734,0.1496944204236955
9.897515999999998,4.295831588606826,0.14931458555752247
9.899892,4.315805374242751,0.1488225587868942
9.902295999999998,4.334196368012839,0.14834845978399794
9.904683999999998,4.354077605850148,0.1478038747527498
9.907064,4.377031879620511,0.14717141319257418
9.909456,4.3982635918981785,0.14657948098517604
9.911844,4.418424368989207,0.14602839626512867
9.914224,4.440447477199793,0.14543560978864908
9.91664,4.461818959104321,0.14484266637980614
9.919028,4.479326009142874,0.14434544812146305
9.921404,4.486962325076204,0.14410152231779005
9.923812,4.497392137688868,0.14379808128207072
9.926196,4.50996382067481,0.14342525410885967
9.928579999999998,4.51815921511558,0.14313310053173608
9.930976,4.5249115873173755,0.1428472058266865
9.93336,4.53273489470581,0.14253201721075565
9.935743999999998,4.540558202094243,0.14222143097301101
9.938148,4.544377307989842,0.14201555452133904
9.940532,4.549779205751278,0.14179514531277837
9.942911999999998,4.555181103512715,0.14157651054242754
9.945316,4.562585102020568,0.14130747339319857
9.947704,4.572270740528557,0.14097277599154853
9.950084,4.582887544596325,0.14061910349602763
9.95248,4.5933645790372335,0.14028040236013378
9.954868,4.601839512731725,0.13999212714741188
9.957247999999998,4.609523050493297,0.13971219339970722
9.959648,4.615484026762173,0.1394570444106505
9.962032,4.619442902284634,0.13924914649323275
9.964411999999998,4.623262008180234,0.13905316727825215
9.966816,4.627872510008751,0.1388487804618906
9.9692,4.643424681129132,0.13838553293002956
9.971579999999998,4.656742434077618,0.13793602068859231
9.973976,4.671410661466463,0.1374371815059578
9.976359999999998,4.688453076654062,0.13691794079668684
9.978756,4.708288988520996,0.13635318032004534
9.98116,4.723469072589039,0.13587587977264598
9.983544,4.734924494417969,0.13546964526024188
9.985924,4.74488967217968,0.13512233735388857
9.988324,4.752852749194973,0.13482165636959864
9.990708,4.758813725463849,0.13456814716021281
9.993087999999998,4.763983305799807,0.1343218363229382
9.995496,4.7599337783366,0.13430229239627203
9.99788,4.75667564680631,0.13427636927638398
10.000264,4.7495530834100474,0.13433251439120153
10.002667999999998,4.740568188894228,0.13442502021496486
10.005052,4.731303755124688,0.1345399383920846
10.007432,4.726043522847981,0.13455997877449025
10.009835999999998,4.721342369078716,0.13453458618901365
10.012223999999998,4.7165014456825896,0.13452048898941854
10.014604,4.716875428592797,0.13437415029625824
10.016999999999998,4.709380778144196,0.1343986741418843
10.019388,4.701606588441875,0.13444486940498354
10.021768,4.694484025045612,0.13449474086391847
10.024164,4.686849604970151,0.1345274388772842
10.026548,4.6733486522823,0.13468093075313575
10.028932,4.665574462579979,0.1347237309379911
10.031328,4.663946344743769,0.1346241457969036
10.033712,4.665019175788277,0.13442581921334906
10.036096,4.666371546086506,0.1342045529818841
10.038492,4.6697260171311505,0.13393962067035714
10.040876,4.676013754481992,0.13361778727104123
10.043255999999998,4.689378729258721,0.13313508670725108
10.04566,4.700089976982976,0.13268949520770945
10.048044,4.713594721386565,0.1321904544363201
10.050423999999998,4.7331057680294055,0.1315641018689057
10.052815999999998,4.751685649112466,0.13095233071830903
10.055203999999998,4.763048523142779,0.13051028410458862
10.057584,4.777065124225567,0.1300337242067926
10.059996,4.791221494935214,0.12954658538274724
10.062384,4.799371563405611,0.12919273885532997
10.064763999999998,4.8096635022492835,0.1287810648540241
10.067164,4.8219575418393745,0.1283297505564092
10.069552,4.8285248184439356,0.1279839153361714
10.071932,4.8360232606082745,0.12762406573442905
10.074328,4.847665673892308,0.12716616415876633
10.076716,4.855443655310366,0.1267861067588521
10.079095999999998,4.854933694489038,0.1265978568318583
10.081487999999998,4.855354899227488,0.1263947902436473
10.083875999999998,4.857778204712356,0.12615040317760995
10.086256,4.858478948704526,0.12592614137553548
10.088651999999998,4.8543840952709445,0.12578901773043757
10.091039999999998,4.848287141090945,0.12569259261967997
10.09342,4.842981582843865,0.12559173750231437
10.095816,4.838886729410284,0.1254543052738189
10.098204,4.827854408177672,0.1254528882339665
10.100588,4.818963957318339,0.12540002578064405
10.102984,4.81435724720556,0.12524465401066784
10.105372,4.807608666719505,0.12514062202148749
10.107752,4.801791251793228,0.125021585475179
10.110148,4.7981157072402265,0.12485120277260063
10.112536,4.798956220859257,0.12461907439627724
10.114916,4.796863468172092,0.12444159861230232
10.117312,4.799566312910679,0.12417966677895693
10.1197,4.800918683208907,0.12396479046705479
10.12208,4.798918478320359,0.12383568092793758
10.124476,4.79784943899159,0.12369184142441902
10.126864,4.801715766715434,0.12345234640905728
10.129243999999998,4.8053025551855555,0.12323588784147746
10.13164,4.809960278842317,0.12299695262877516
10.134028,4.814478232872217,0.12276789600479894
10.136407999999998,4.821789683581452,0.12249582848099459
10.138804,4.825236702424714,0.12228948967709931
10.141191999999998,4.831756757201031,0.12201963821499026
10.143575999999998,4.838276811977349,0.12175208690363713
10.145972,4.84894083787336,0.12139527136472107
10.148359999999998,4.856671597463176,0.12109157585055808
10.15074,4.865333522612771,0.1207756991974249
10.153144,4.875485691829586,0.12040593009184146
10.155532,4.884846465113481,0.12004142186216848
10.157911999999998,4.894067468770516,0.11968826562626353
10.160308,4.897841248695742,0.11940841479619718
10.162696,4.899473158247691,0.11917428554382409
10.165076,4.8989631974263625,0.11898843109376613
10.167471999999998,4.898872545485614,0.11877125964777022
10.169859999999998,4.904927965410977,0.11843239470224852
10.172244,4.91098338533634,0.11809398098900753
10.174639999999998,4.915967870075065,0.11778035242413958
10.177032,4.918950254067371,0.1175039997398096
10.179412,4.919650998059542,0.1172865034099742
10.181807999999998,4.9211431379846315,0.1170657382620818
10.184195999999998,4.919981550857245,0.11687407033859169
10.18658,4.925477892275167,0.11657920551406473
10.188975999999998,4.92990329850645,0.1163102937712043
10.191368,4.9312556688046785,0.11610061954653333
10.193748,4.928184528729492,0.11599391909703877
10.196144,4.929908986080058,0.11581218897026621
10.198536,4.933495774550179,0.11560698410213227
10.200915999999998,4.933590218206666,0.1154903652444886
10.203312,4.935686762609569,0.11533939187125115
10.205704,4.9388542421991115,0.11516663720666302
10.208083999999998,4.942673348094711,0.11500062901622907
10.210496,4.951567590669782,0.11474169266927647
10.212884,4.9651648828719885,0.11436604122538559
10.215264,4.977691239887557,0.11401280833489721
10.217656,4.985142460223652,0.11375364842390288
10.220044,4.99273345018661,0.1134852116581932
10.222423999999998,4.999393274589787,0.11322812027476098
10.224816,5.008194969366242,0.11292757442382002
10.227204,5.016345037836638,0.11261884939912511
10.229584,5.025705811120534,0.11227962998186641
10.231979999999998,5.04093311701682,0.11185382821883937
10.234376,5.053506695860631,0.11145743015809398
10.236755999999998,5.063566317278827,0.11107627851815766
10.239152,5.07669897463008,0.11064082213517341
10.241544,5.095326077541386,0.11008871538771715
10.243923999999998,5.1091575830269385,0.10960631946586302
10.246335999999998,5.119124656646518,0.1091820789476125
10.248724,5.1323045358260115,0.10869427583798091
10.251104,5.141340443885813,0.10828143401641359
10.25352,5.150516121572474,0.10786226987726202
10.255904,5.161973439259275,0.1073932655775019
10.258283999999998,5.172779130640016,0.10692120086043311
10.26068,5.1780903764607045,0.10656157882286273
10.263068,5.185683262281529,0.1061537695743445
10.265448,5.1958373273562115,0.10567944698743977
10.267843999999998,5.2081332628041705,0.10517006275809253
10.270231999999998,5.223130147132848,0.1045867506217595
10.272612,5.239477505901886,0.10397277001333716
10.275011999999998,5.2579667350442,0.10332360295184799
10.277399999999998,5.276875273067096,0.10265338836299294
10.27978,5.2888463432909605,0.10208020042579187
10.282196,5.300957183141687,0.10149971748178983
10.28458,5.317723850791305,0.10087684410822581
10.286964,5.334770057694643,0.1002414245275027
10.289376,5.350745329411341,0.09963089117360763
10.291764,5.369142010755038,0.09896724530664343
10.294144,5.387026835419537,0.09828363369895529
10.296539999999998,5.403980494524258,0.09761202052221589
10.298927999999998,5.424426498442615,0.0968710674033892
10.301304,5.441659696801056,0.09618246349012675
10.303712,5.456890794413081,0.09552195577448849
10.3061,5.46876931683833,0.09492237409657667
10.308479999999998,5.483720875196632,0.09427935481981724
10.310876,5.4923865920619654,0.09372745933564243
10.313263999999998,5.4934159929939685,0.09330221988843582
10.315644,5.491372357992916,0.09292151923898892
10.318048,5.486907313364867,0.09259338624914648
10.320436,5.47401455687057,0.0923922479149246
10.322815999999998,5.4568380596297175,0.09225915529609313
10.325212,5.437379922388729,0.09216742929058665
10.327595999999998,5.422717382573492,0.09202531339997086
10.329976,5.40991717387781,0.0918660687047934
10.332384,5.392181598129518,0.09176327362255621
10.334768,5.372164382381088,0.09170120612712454
10.337148,5.3512160010728795,0.09164474518201533
10.339552,5.327566670883954,0.09165549630306283
