Time,Force,Position
8.356683999999998,0.14284212286826167,0.0
8.359079999999999,0.14489144544292168,0.0
8.361467999999999,0.14573006320408294,0.0
8.363851999999998,0.14456658021882735,0.0
8.366247999999999,0.13640283742975065,0.0
8.368635999999999,0.12853420407094346,0.0
8.371019999999998,0.12331929776461101,0.0
8.373424,0.11889578739119668,0.0
8.375812,0.11247017627136548,0.0
8.378191999999999,0.10525316921861619,0.0
8.380588,0.0951028958596717,0.0
8.382976,0.08988798955333926,0.0
8.385359999999999,0.08495262250072724,0.0
8.387756,0.08201935619453213,0.0
8.390144,0.08309029138117065,0.0
8.392527999999999,0.08295052175431043,0.0
8.394924,0.08760634955320203,0.0
8.397312,0.08797843660553949,0.0
8.399691999999998,0.08942145884451551,0.0
8.402088,0.0939375170165469,0.0
8.404475999999999,0.10445987742782885,0.0
8.406859999999998,0.11298013709269394,0.0
8.409256,0.12457343269061442,0.0
8.411643999999999,0.1412418649680071,0.0
8.414023999999998,0.15462051406341626,0.0
8.416419999999999,0.16356008260886198,0.0
8.418807999999999,0.171288946340809,0.0
8.421191999999998,0.17315127746036563,0.0
8.423587999999999,0.17659640044575847,0.0
8.425975999999999,0.1788308186176526,0.0
8.428359999999998,0.1792029056699901,0.0
8.430755999999999,0.17878359678940947,0.0
8.433143999999999,0.17422031678913494,0.0
8.435527999999998,0.1695172671620002,0.0
8.437923999999999,0.16281211678844856,0.0
8.440311999999999,0.1563865056686174,0.0
8.442695999999998,0.14716739786945127,0.0
8.445091999999999,0.1402299300704224,0.0
8.447479999999999,0.13329246227139352,0.0
8.449863999999998,0.12449266335280798,0.0
8.452259999999999,0.11383053331466582,0.0
8.454647999999999,0.1042393384631622,0.0
8.457031999999998,0.0925062732383815,0.0
8.459427999999999,0.07569807133412858,0.0
8.461815999999999,0.06531548054970684,0.0
8.464199999999998,0.058657552004398386,0.0
8.466596,0.0534898675263091,0.0
8.468988,0.05712198196680531,0.0
8.471363999999998,0.05889176528774489,0.0
8.473759999999999,0.05973038304890615,0.0
8.476143999999998,0.06601622454187712,0.0
8.478528,0.06894949084807231,0.0
8.48094,0.07267415308718558,0.0
8.483328,0.07267415308718557,0.0
8.485707999999999,0.07267415308718558,0.0
8.488104,0.07174298752740726,0.0
8.490492,0.07081182196762896,0.0
8.492871999999998,0.07095159159448916,0.0
8.495268,0.06988065640785063,0.0
8.497656,0.06988065640785063,0.0
8.500048,0.06809530291036198,0.0
8.502448000000001,0.06523901422623476,0.0
8.504832,0.06252249516896778,0.0
8.507211999999999,0.061808076858117664,0.0
8.509619999999998,0.05881201854713026,0.0
8.512004000000001,0.055024564303224756,0.0
8.514384,0.050026405245820506,0.0
8.51678,0.04116381432244276,0.0
8.519168,0.03464565540399452,0.0
8.521548,0.032131697978379975,0.0
8.523955999999998,0.02831448794064963,0.0
8.526340000000001,0.025707982716418033,0.0
8.528724,0.026593822305822447,0.0
8.531119999999998,0.03213548969411846,0.0
8.533507999999998,0.03953948820197112,0.0
8.535888,0.04345114189618775,0.0
8.538291999999998,0.047083256336683976,0.0
8.540675999999998,0.05057560115031999,0.0
8.543056,0.050483053351702924,0.0
8.545459999999999,0.0497686350408528,0.0
8.547847999999998,0.0497686350408528,0.0
8.550232000000001,0.0497686350408528,0.0
8.552627999999999,0.0497686350408528,0.0
8.555011999999998,0.0497686350408528,0.0
8.557396,0.0497686350408528,0.0
8.559791999999998,0.0497686350408528,0.0
8.562176000000001,0.0497686350408528,0.0
8.56456,0.0497686350408528,0.0
8.566956000000001,0.04849513822256184,0.0
8.569344000000001,0.04521954065785402,0.0
8.571724,0.04059346865278724,0.0
8.574127999999998,0.0368985622074988,0.0
8.576515999999998,0.030922015762073075,0.0
8.578896,0.023083138197090708,0.0
8.581304,0.014313095072330022,0.0
8.583687999999999,0.00889562713434514,0.0
8.586071999999998,0.008616087880624722,0.0
8.588467999999999,0.0083365486269043,0.0
8.590855999999999,0.016577269038048972,0.0
8.593236000000001,0.026371025521205037,0.0
8.595631999999998,0.03909804831055627,0.0
8.598019999999998,0.053687402219464136,0.0
8.6004,0.06920792168815035,0.0
8.602795999999998,0.08472844115683655,0.0
8.605183999999998,0.09410288875941197,0.0
8.607564,0.10133546598871035,0.0
8.609963999999998,0.10935943915092683,0.0
8.612348,0.11631247712650478,0.0
8.614732,0.12526761584849957,0.0
8.617135999999999,0.12914761789102217,0.0
8.619523999999998,0.13302761993354473,0.0
8.621907999999998,0.13462598197593,0.0
8.624303999999999,0.13462598197593,0.0
8.626691999999998,0.13462598197593,0.0
8.629072,0.13462598197593,0.0
8.63148,0.13462598197593,0.0
8.633868,0.1306987581051643,0.0
8.636247999999998,0.12677153423439858,0.0
8.638644,0.11804871293788105,0.0
8.641032,0.108254956454725,0.0
8.643411999999998,0.09552793366537375,0.0
8.645807999999999,0.08093857975646589,0.0
8.648195999999999,0.06541806028777968,0.0
8.650576000000001,0.049897540819093485,0.0
8.652971999999998,0.04052309321651805,0.0
8.655359999999998,0.033290515987219674,0.0
8.657744000000001,0.025266542825003194,0.0
8.660139999999998,0.018313504849425243,0.0
8.662527999999998,0.00935836612743044,0.0
8.664908,0.00833465276903506,0.0
8.667307999999998,0.007450709037499889,0.0
8.669695999999998,0.01126981493309947,0.0
8.672076,0.020039858057860155,0.0
8.674475999999999,0.02974106674239916,0.0
8.676859999999998,0.03958204505379837,0.0
8.67924,0.048491857805419265,0.0
8.681643999999999,0.05418886499712457,0.0
8.684031999999998,0.05960633293510945,0.0
8.686412,0.06409263531331601,0.0
8.688816,0.06457473619868886,0.0
8.691199999999998,0.06457473619868886,0.0
8.693583999999998,0.06491706745720151,0.0
8.695979999999999,0.06491706745720151,0.0
8.698367999999999,0.06525939871571415,0.0
8.700751999999998,0.06760383072064365,0.0
8.703147999999999,0.0680859316060165,0.0
8.705535999999999,0.06856803249138936,0.0
8.707916,0.0687705941230418,0.0
8.710315999999999,0.0711150261279713,0.0
8.712703999999999,0.06860106870235677,0.0
8.715084000000001,0.06687850720966035,0.0
8.717479999999998,0.06245499683624602,0.0
8.719867999999998,0.05654124239561253,0.0
8.722248,0.04684003371107352,0.0
8.724643999999998,0.03878440889716297,0.0
8.727035999999998,0.03259111520280905,0.0
8.729416,0.031752497441647785,0.0
8.731811999999998,0.03133318856106716,0.0
8.734199999999998,0.03370737635982149,0.0
8.736584,0.043019031957604696,0.0
8.738979999999998,0.05174185325412223,0.0
8.741364,0.05798047291885005,0.0
8.743759999999998,0.0674946901482857,0.0
8.74616,0.07438493611907142,0.0
8.748548,0.07633981503724513,0.0
8.750927999999998,0.08201935619453211,0.0
8.753324,0.08863006291159742,0.0
8.755711999999999,0.09552030888238314,0.0
8.758091999999998,0.09719564854683642,0.0
8.760496,0.10180425451748487,0.0
8.762884,0.10320005492821772,0.0
8.765267999999999,0.1050151642195312,0.0
8.767664,0.10215887553540402,0.0
8.770048,0.10496794239128807,0.0
8.772431999999998,0.1031825888937994,0.0
8.774828,0.10046606983653242,0.0
8.777216,0.09641464651545557,0.0
8.779595999999998,0.0920836839406583,0.0
8.782,0.0852231937636974,0.0
8.784388,0.07542943728054136,0.0
8.786772,0.06672218616057289,0.0
8.789168,0.06336961097379708,0.0
8.791552,0.05922563985410317,0.0
8.793931999999998,0.05950517910782359,0.0
8.796336,0.06565125097393434,0.0
8.798724,0.07300802765354385,0.0
8.801108,0.07836270358673651,0.0
8.803504,0.08385714914678938,0.0
8.805892,0.0914934650801193,0.0
8.808271999999999,0.09577720582667343,0.0
8.810676,0.10406514806606124,0.0
8.813064,0.11151447254428781,0.0
8.815448,0.1260093827967094,0.0
8.817844000000001,0.13736846511128337,0.0
8.820228,0.1520012491326959,0.0
8.822612,0.1684019206171788,0.0
8.825008,0.18748607494796124,0.0
8.827396,0.2087102037941515,0.0
8.829775999999999,0.23790918811644587,0.0
8.832172,0.27441583143223736,0.0
8.83456,0.3216596865503697,0.008375966779508248
8.836943999999999,0.36964581991530776,0.017287989331523704
8.839344,0.42037633227346843,0.026543467148013592
8.841728,0.4762726332518491,0.035685548849829676
8.844111999999999,0.5365433269175317,0.04473767069584733
8.846508,0.5987670036435189,0.053995881688397626
8.848896,0.6688101960422008,0.06331228891261396
8.851275999999999,0.7493266311660522,0.07236692889821547
8.853672,0.8448323671871047,0.0810442109158423
8.856055999999999,0.9541639211201024,0.08954847629776934
8.858436000000001,1.0750396529649082,0.09782584416817598
8.860831999999998,1.207367014922905,0.10598952755478447
8.863219999999998,1.3454192440085626,0.11407147657170068
8.8656,1.4912456627965416,0.12214434505445657
8.867995999999998,1.6475472201675587,0.13003338253421495
8.870383999999998,1.8086443749643284,0.1378690696372481
8.872768,1.9700210690148177,0.1457382464676178
8.875163999999998,2.1365201215730227,0.15349821639636252
8.877551999999998,2.2984577899888223,0.16125599863780604
8.879932,2.4570447790757153,0.16895745432295345
8.882331999999998,2.6088359658483093,0.168228856133261
8.884716000000001,2.76277091885205,0.16683803480409104
8.887096,2.9172668462211,0.16498094967233384
8.889512,3.0645476623952703,0.16329326972562758
8.8919,3.2066154681209764,0.16169380194206223
8.894279999999998,3.346031442652079,0.15986096767171817
8.896676,3.4822837293093762,0.15789689003514973
8.899064,3.6056413636145077,0.15627512761538181
8.901447999999998,3.714940862582217,0.1550307231635886
8.903844,3.815257362891975,0.15386628598290364
8.906232,3.900072705625335,0.1529419773412324
8.908628,3.9724127048871076,0.1521615563033323
8.911024000000001,4.033348295863933,0.15146784489880294
8.913412000000001,4.090189033407176,0.15066835497296863
8.915792,4.135298601583508,0.15006109450668403
8.918191999999998,4.174775850430797,0.14948622551944665
8.920576,4.20969171513568,0.14888621385083178
8.922956,4.2368333901382425,0.14839117021163756
8.925356,4.260716933610515,0.14788138330935177
8.92774,4.280131640738999,0.14741091121219438
8.930124,4.290421683724803,0.14708453947831418
8.932527999999998,4.28930542256779,0.14699235946621111
8.934915999999998,4.277946340253218,0.14715434066826333
8.937296,4.262909817527774,0.14734445422012893
8.939692,4.245918415884156,0.14752213117987065
8.94208,4.225761430508864,0.14773783888731462
8.94446,4.2000174517749045,0.14809157315406893
8.946860000000001,4.178557213787499,0.14829978001788557
8.949248,4.1545830183744785,0.14855522643409752
8.951628,4.12381112478929,0.14900506675176847
8.954031999999998,4.094482253443076,0.14945354360428753
8.956416,4.064082446910224,0.14995361949393024
8.9588,4.03391495780285,0.15050724675636143
8.961196000000001,3.9963906920158663,0.1513223292428316
8.963584,3.9593782829080806,0.1521607308914323
8.965964,3.9232970393600723,0.15296118120188726
8.96836,3.8880071917449825,0.15375328446638306
8.970748,3.8553710711823674,0.15447645814344746
8.973127999999999,3.824457512112448,0.1551575987912334
8.975524,3.7908430041618115,0.15598788362949403
8.977912,3.7618371021818238,0.15679104769682695
8.980296,3.744656813225233,0.15728643830946099
8.982696,3.7329237480004527,0.15765307157985564
8.98508,3.7303625687465947,0.1577755862075863
8.987459999999999,3.7273820806121565,0.15794126983304047
8.989867999999998,3.7267757802764727,0.1580732771370017
8.992252,3.729242515873844,0.15810039929183317
8.994632,3.7289157547918803,0.15820369045767618
8.997028,3.733896447814866,0.15818410978439273
8.999416,3.743765286062221,0.15808052877790504
9.001795999999999,3.7540062113619133,0.15800734050948645
9.004203999999998,3.769834130020275,0.15777803073273808
9.006588,3.7878039190519144,0.15746587961454672
9.008968,3.812571406255722,0.15693551952484633
9.011371999999998,3.8419021734598044,0.1562281187688752
9.013759999999998,3.865506177678357,0.15568438707925303
9.01614,3.8903208867104078,0.15509065286269913
9.018539999999998,3.911131394249625,0.1546299452915698
9.020927999999998,3.931522592908262,0.15421834604125464
9.023308,3.955917993059733,0.15366483468047604
9.025704,3.9830143420919217,0.1529759629543875
9.028092,4.000519496272607,0.1525825907775383
9.030476,4.01951489452051,0.15211358712794112
9.032872,4.033063069036604,0.15179124715296005
9.03526,4.048101487619917,0.15139085953150558
9.03764,4.05876361765806,0.1510814769703281
9.040036,4.067563416576645,0.15082162027048812
9.042424,4.078085776987927,0.15052754278715594
9.044819999999998,4.084743705533235,0.15034561679562536
9.047216,4.092752108518902,0.15010033923077587
9.049604,4.101179820385151,0.14981280136551586
9.051984,4.109607532251399,0.1495321107430716
9.054379999999998,4.116964308931009,0.14928886390059068
9.056767999999998,4.121667358558144,0.14910410078605782
9.059152,4.118873861878809,0.14917224647611713
9.061547999999998,4.120875962625226,0.14911271324707098
9.063935999999998,4.1233899200508395,0.14907113893138865
9.066316,4.131910179715704,0.1488555807145181
9.068715999999998,4.141641144194069,0.1485944151619863
9.071103999999998,4.15351397904571,0.1482679948609536
9.073484,4.167109375390047,0.1479211641274469
9.075884,4.186850843600494,0.14739602340957234
9.078267999999998,4.206312772557222,0.1469059418895558
9.080652,4.227357493379787,0.14640357706044194
9.083047999999998,4.245980804575352,0.14599261798189567
9.085435999999998,4.2693997131966706,0.145464439168386
9.08782,4.29840561517666,0.144824596817588
9.090215999999998,4.328482452343286,0.14416135429597873
9.092603999999998,4.3636344261893845,0.1433710608553124
9.094988,4.397995004102565,0.1425991180177178
9.097383999999998,4.435428617948801,0.1417564660588967
9.099771999999998,4.468206403996146,0.1410136674489839
9.102152,4.50205512523013,0.14024148697172775
9.10456,4.534693141650614,0.13950960484631225
9.106948,4.569612798071235,0.13868656733145499
9.109331999999998,4.604811993745577,0.13784819919417696
9.111724,4.636286527180807,0.13708566294335517
9.114107999999998,4.66482779430984,0.13640979103666284
9.116487999999997,4.691506730319317,0.13577843929940045
9.118883999999998,4.713669608156763,0.13523299695872887
9.121267999999995,4.728243391889122,0.13484743003340346
9.123663999999998,4.733877607076034,0.13467214550897397
9.126068,4.7349957640909155,0.1345776375350372
9.128456,4.732529028493544,0.1345457333228957
9.130836,4.734625572896447,0.134369532604212
9.133239999999995,4.735651182112711,0.13422457490780146
9.135624,4.730018862783668,0.13421759614129655
9.138004,4.724386543454624,0.13420953941449454
9.140407999999995,4.714750022632748,0.13429201440167918
9.142795999999995,4.704182336251092,0.13439058643674898
9.145176,4.691752318749879,0.13451926959301697
9.147572,4.680253466808443,0.13463309220897116
9.149956,4.670105089307368,0.13469409552543266
9.152335999999998,4.6622383518064305,0.13468825445874916
9.154732,4.657304880611688,0.13462128894836958
9.15712,4.653023035723003,0.13455968474387536
9.159499999999998,4.650743291580735,0.13445429226649294
9.161904,4.642457245199216,0.13448225667932287
9.164292,4.632960494004199,0.13454973800262707
9.166671999999998,4.624906765048159,0.1346177773048029
9.169075999999995,4.622719568704508,0.134561794393129
9.17146,4.630682645719801,0.1342671215134136
9.173844,4.640228514600931,0.1339570141338225
9.176243999999995,4.655920455348171,0.13350189919144198
9.178631999999997,4.667188885721997,0.13317537641713936
9.181012,4.678736855349544,0.13282927808816178
9.183415999999998,4.691355760163729,0.13245206589601816
9.185799999999997,4.699179067552163,0.13217002127928615
9.18818,4.707142144567456,0.13187696346811922
9.190583999999998,4.713103120836333,0.13162775919012035
9.192971999999996,4.7149201259855165,0.13147984428829154
9.195352,4.719810167067754,0.13125889634774973
9.197755999999998,4.71948530184366,0.13116798436526167
9.200139999999998,4.718369040686647,0.13108281563833435
9.202523999999997,4.717532318783355,0.13097585313207055
9.204923999999998,4.716183740200866,0.13085243188190335
9.207311999999998,4.715114700872095,0.13070694092486118
9.209691999999997,4.722054064528994,0.13038695389673746
9.212096,4.728062262626113,0.1300802762919525
9.214479999999998,4.735420935163592,0.1297248033713979
9.216863999999998,4.738775406208237,0.12945742810530075
9.219255999999998,4.7367752013196895,0.12932778226992658
9.221643999999998,4.737848032364197,0.12912841185675808
9.224024,4.730772690796178,0.12911132452115123
9.226419999999996,4.7250478236685165,0.12904531405451133
9.228807999999995,4.71611015098094,0.1290602359173688
9.231188,4.707032708666504,0.12908669469364897
9.233583999999995,4.698886431911846,0.12909861093468616
9.235971999999997,4.690879924784047,0.1290987313713558
9.238352,4.681942252096471,0.12911690910145018
9.240748,4.67621738496881,0.12905130004273702
9.243136,4.664486215601898,0.12912160426829347
9.245516,4.657038786981541,0.12907840960736708
9.247919999999995,4.651825776533078,0.1290297544750362
9.250304,4.644470895711338,0.1290360749729984
9.252688,4.631901108583266,0.12917164565321754
9.255084,4.621985048507669,0.12926621263172797
9.257468,4.607133621379457,0.1294634560850357
9.259847999999998,4.595774539064883,0.12955533822572463
9.262252,4.583204751936811,0.12968458272637806
9.26464,4.571286591114796,0.12982290162390137
9.26702,4.5615103006660584,0.1299058820971786
9.26942,4.552013549471041,0.12996344723121808
9.271804,4.548523100515275,0.1298915712282536
9.274188,4.543682177119148,0.12986943041308793
9.276584,4.543916390402495,0.1297333857808431
9.278972,4.547083869992037,0.12953872606487563
9.281351999999998,4.55504694700733,0.12925433477855705
9.283748,4.558586513649209,0.1290870670769196
9.286131999999998,4.568504469582677,0.12881870708609405
9.288532,4.576932181448924,0.12861069414710646
9.290936,4.591366195554422,0.12826986530892104
9.293319999999998,4.601236929659646,0.12806055307201467
9.2957,4.604589504846422,0.12796542780475528
9.298095999999996,4.607942080033197,0.12787052745141436
9.300483999999996,4.618232123019004,0.12762569741037258
9.302864,4.624657734138835,0.12745964550000022
9.305267999999998,4.6350875467515,0.12720618497155523
9.307651999999996,4.644678741603004,0.1270227931152046
9.310036,4.653338770894729,0.12685485824728351
9.312431999999998,4.668424411306285,0.12652768262918238
9.314815999999997,4.681647720598285,0.12623308735079772
9.3172,4.692449620263288,0.12601703881208431
9.319603999999998,4.699107548808595,0.12589693638157848
9.321991999999998,4.706976182167401,0.12573849650020202
9.324371999999997,4.70804711735404,0.125711730554944
9.326767999999998,4.704322455114928,0.12577444332610307
9.329155999999998,4.693800094703645,0.1259700291098183
9.331536,4.691705446158612,0.1259613431879636
9.333939999999998,4.688587084255183,0.12591676083925873
9.336323999999998,4.688961067165389,0.12577193073368625
9.338707999999995,4.688403884515819,0.12564306225959232
9.341103999999998,4.693201377799439,0.12538476745129426
9.343491999999998,4.703074007762532,0.12501617048995176
9.345872,4.710804767352348,0.12469799564079964
9.348267999999996,4.714391555822471,0.12447505748501435
9.350655999999995,4.718257883546314,0.1242293435086293
9.353036,4.718771636083381,0.12407332570924157
9.355431999999997,4.7206358630608065,0.1238706395228394
9.35782,4.72436242115779,0.12363807244484919
9.3602,4.721011741828883,0.12355356051254864
9.362596,4.7193836239926705,0.12345050689181214
9.364984,4.716824340596682,0.12336205498658642
9.367379999999995,4.719340193880166,0.1231680345309513
9.369775999999998,4.720924881603872,0.12298845324099142
9.372159999999996,4.726234231566691,0.1227476396236199
9.374544,4.738341279701679,0.12238242346003605
9.376939999999998,4.7544525293295,0.12193047404946597
9.379327999999996,4.763207002277712,0.12165127941320747
9.381708,4.768329360785428,0.12148358115711053
9.384111999999998,4.770238913733227,0.12139320204428843
9.386499999999998,4.772008697054166,0.12131425635902734
9.388879999999997,4.771636610001828,0.12128575542696925
9.391279999999998,4.77112475332263,0.12126796545375539
9.393663999999998,4.7728945366435696,0.12118980851909422
9.396044,4.776945959964646,0.12105145268465636
9.398447999999998,4.783790879965059,0.1208720268422393
9.400835999999998,4.7942679144059674,0.12058837426555072
9.403215999999995,4.800368660301705,0.12035325231198878
9.40562,4.807028484704881,0.12007817193784828
9.408008,4.816761345041114,0.1197408029187595
