Time,Force,Position
8.322960000000002,0.06716793421564579,0.0
8.32534,0.06509588446125537,0.0
8.327736000000002,0.06302383470686496,0.0
8.330124000000001,0.056947583459640835,0.0
8.332504,0.050731562585556514,0.0
8.334900000000001,0.0453069376443903,0.0
8.337288000000001,0.040813478263002384,0.0
8.339668,0.03832211962803134,0.0
8.342064,0.03489959543328198,0.0
8.344452,0.03333940235808926,0.0
8.346832,0.031639439656036314,0.0
8.349228,0.03163943965603632,0.0
8.351612,0.031150181767482122,0.0
8.354008,0.03080069350578814,0.0
8.356412000000002,0.02458467263170381,0.0
8.358800000000002,0.019439586944258014,0.0
8.361176,0.01450421989164599,0.0
8.363576000000002,0.011431183958590609,0.0
8.365960000000001,0.00970862246589418,0.0
8.368344,0.008405369853778377,0.0
8.370740000000001,0.01376004578697103,0.0
8.373128000000001,0.02132654110141431,0.0
8.375508,0.02889303641585759,0.0
8.377904000000001,0.03552836617052254,0.0
8.380292,0.0420239262983273,0.0
8.382672,0.04637761605285498,0.0
8.385076000000002,0.0519420106208814,0.0
8.387464000000001,0.05750640518890783,0.0
8.389844,0.06400196531671258,0.0
8.392248000000002,0.07170823025801608,0.0
8.394636000000002,0.07941449519931956,0.0
8.397016,0.0859100553271243,0.0
8.399412000000002,0.09226584582806883,0.0
8.401800000000001,0.09689907483631693,0.0
8.40418,0.10125276459084462,0.0
8.406576000000001,0.10574622397223252,0.0
8.408964000000001,0.10816763359923001,0.0
8.411344,0.10951810803958897,0.0
8.413744000000001,0.10716651903147814,0.0
8.416128,0.10360422520986856,0.0
8.418512,0.0961774995222855,0.0
8.420916000000002,0.08861100420784222,0.0
8.423300000000001,0.08104450889339895,0.0
8.42568,0.07440917913873399,0.0
8.428084000000002,0.06791361901092924,0.0
8.430472000000002,0.06355992925640154,0.0
8.432852,0.057995534688375115,0.0
8.435248000000001,0.05243114012034869,0.0
8.437636000000001,0.04593557999254394,0.0
8.440016,0.03822931505124045,0.0
8.442412000000001,0.030523050109936962,0.0
8.4448,0.024027489982132215,0.0
8.44718,0.017671699481187676,0.0
8.449580000000001,0.016460994667688935,0.0
8.451968,0.017392160227467254,0.0
8.454348,0.01818355616038536,0.0
8.456744,0.01869541283958305,0.0
8.459132,0.022280305451836124,0.0
8.461528000000001,0.026494225579503594,0.0
8.463924000000002,0.029776980147392756,0.0
8.466312000000002,0.034922065834838555,0.0
8.468692,0.03913598596250603,0.0
8.471088000000002,0.04428107164995183,0.0
8.473476000000002,0.04942615733739762,0.0
8.47586,0.05908730119687481,0.0
8.478256000000002,0.06674634430993515,0.0
8.480644000000002,0.06933025074352325,0.0
8.483024,0.06933025074352325,0.0
8.485420000000001,0.06933025074352325,0.0
8.487808000000001,0.06933025074352325,0.0
8.490188,0.06933025074352325,0.0
8.492584,0.06933025074352325,0.0
8.494972,0.06933025074352325,0.0
8.497368000000002,0.06590772654877389,0.0
8.499763999999999,0.06062287123446788,0.0
8.502152000000002,0.055338015920161875,0.0
8.504532000000001,0.05219503097913293,0.0
8.506928000000002,0.047049945291687136,0.0
8.509316000000002,0.04283602516401966,0.0
8.511700000000001,0.03955327059613051,0.0
8.514096000000002,0.034408184908684705,0.0
8.516484000000002,0.030194264781017232,0.0
8.518868000000001,0.025049179093571433,0.0
8.521264000000002,0.019904093406125638,0.0
8.523652000000002,0.010242949546648445,0.0
8.526032,0.0025839064335881055,0.0
8.528428000000002,0.0,0.0
8.530816000000002,0.0,0.0
8.533196,0.0,0.0
8.535596000000002,0.0,0.0
8.537984000000002,0.0,0.0
8.540364,0.0,0.0
8.542764000000002,0.00020971863483377454,0.0
8.545152000000002,0.0002097186348337745,0.0
8.547536000000001,0.0002097186348337745,0.0
8.549928000000001,0.0013506028294458694,0.0
8.552316000000001,0.0014205518374194336,0.0
8.554708000000002,0.0014905008453929979,0.0
8.557112,0.002491615413144883,0.0
8.5595,0.0024916154131448824,0.0
8.561876000000002,0.0024916154131448824,0.0
8.56428,0.002491615413144883,0.0
8.566668,0.005494830727313618,0.0
8.569044000000002,0.007986189362284664,0.0
8.571436000000002,0.010617317624115918,0.0
8.573824000000002,0.011246345139530324,0.0
8.576204,0.01201514228180494,0.0
8.578608,0.012015142281804942,0.0
8.580992000000002,0.012015142281804942,0.0
8.583372,0.012015142281804942,0.0
8.585768000000002,0.012015142281804942,0.0
8.588152000000001,0.012015142281804942,0.0
8.590532,0.011805423646971167,0.0
8.592924,0.011805423646971167,0.0
8.595312,0.011805423646971167,0.0
8.597692000000002,0.010664539452359071,0.0
8.600083999999999,0.010594590444385509,0.0
8.602472000000002,0.010524641436411943,0.0
8.604848,0.00952352686866006,0.0
8.607264,0.00952352686866006,0.0
8.609648,0.00952352686866006,0.0
8.612028000000002,0.00952352686866006,0.0
8.614424,0.006520311554491324,0.0
8.616808000000002,0.004028952919520277,0.0
8.619188000000001,0.0013978246576890206,0.0
8.621584000000002,0.0007687971422746155,0.0
8.623968000000001,0.0,0.0
8.626348,0.0,0.0
8.628764,0.0015601930751927256,0.0
8.631148,0.0021892205906071304,0.0
8.633528000000002,0.0021892205906071304,0.0
8.635944000000002,0.004960118479298597,0.0
8.638328000000001,0.004960118479298597,0.0
8.640708,0.005868685248433423,0.0
8.643104000000001,0.0058686852484334225,0.0
8.645492,0.006917021644428458,0.0
8.647872,0.006917021644428459,0.0
8.650264,0.006917021644428459,0.0
8.652648,0.006917021644428459,0.0
8.655028000000001,0.006917021644428459,0.0
8.657440000000001,0.006917021644428459,0.0
8.659828000000001,0.006917021644428459,0.0
8.662208,0.006917021644428459,0.0
8.66462,0.006917021644428459,0.0
8.667008,0.00691702164442846,0.0
8.669388000000001,0.00691702164442846,0.0
8.671792,0.006917021644428461,0.0
8.674176,0.006917021644428461,0.0
8.676556000000001,0.005356828569235734,0.0
8.678948000000002,0.004727801053821329,0.0
8.681332000000001,0.004727801053821329,0.0
8.683716,0.0049978610181955355,0.0
8.686128,0.018699053051534124,0.0
8.688512,0.03758863249573626,0.0
8.690892000000002,0.06655676882212697,0.0
8.693287999999999,0.10364655886557639,0.0
8.695672000000002,0.14909234429851798,0.01108139578931364
8.698068,0.20598975984465054,0.021061711203425253
8.700464,0.27033460401114046,0.03079972617248696
8.702852,0.3409161719844889,0.04052623702502111
8.705232000000002,0.4217386652575297,0.04982993706469052
8.707636,0.5146644149498194,0.0586740954031724
8.71002,0.6201127299419387,0.0670822500374798
8.712396000000002,0.7303547465019404,0.07558132343919036
8.714792,0.8475323350031019,0.08401581000180332
8.717176000000002,0.9777915673115338,0.09204805194343522
8.719556,1.1143347452550674,0.10004553009184847
8.721972000000001,1.25944350883384,0.10788150301417324
8.724356,1.4139092539807696,0.11556008112328534
8.726736000000002,1.578291059203297,0.12303202373717603
8.729140000000001,1.747653557448811,0.13048749975586665
8.731528,1.9144397326922133,0.13804948962380365
8.733908,2.0731721789795743,0.14562824653449613
8.736304,2.2289732548186096,0.1531601670059144
8.738692,2.3767678235298466,0.16071610967180855
8.741071999999999,2.5165558851132857,0.1682957603635354
8.743468,2.650339540315343,0.16480195249196083
8.745852,2.7699706165234916,0.16255809589564185
8.748236000000002,2.8834575167233987,0.16056339017472088
8.75064,2.993733507221259,0.1585472656344063
8.753024,3.093861120218045,0.15701900649041958
8.755404000000002,3.181978024594199,0.1560152771201442
8.7578,3.2578046810960006,0.15549695176272535
8.760188,3.329209723082257,0.15492146595637352
8.762584,3.396984546485886,0.15434497057589888
8.764980000000001,3.449907942761305,0.15429041561850818
8.767364,3.4958485452673216,0.15434799416840184
8.769748,3.5363891458697716,0.1545146554154825
8.772144,3.567153456023484,0.15488450151406916
8.774532,3.5874426275941578,0.1555223599532817
8.776912,3.6023317972612645,0.15622296205779052
8.779312000000001,3.62048099431653,0.1567029577041328
8.7817,3.6360236861475643,0.15716618630771964
8.78408,3.6461191542467892,0.15777861867418672
8.786484000000002,3.652117873054563,0.15847043861343413
8.788872000000001,3.6548112385038034,0.15923055100746739
8.791252,3.6591346176471236,0.1598766395099566
8.793648000000001,3.6688126727236368,0.16030166695514714
8.796036,3.6797014326136486,0.16066472927101194
8.798416,3.6883557743317668,0.16104766171364254
8.800820000000002,3.696498259370686,0.16141059536330052
8.803208000000001,3.706410527730545,0.16165255712550497
8.805588,3.714879773851428,0.16190293229492955
8.807992000000002,3.726701595159087,0.16200900120735512
8.810376000000002,3.7340073582947153,0.16223739219739386
8.812756,3.7429431351244222,0.1623608643967397
8.815152000000001,3.7550917175140452,0.16235430547502538
8.817536,3.76072214098522,0.16254194606010236
8.819916,3.7689137437102516,0.162598522008515
8.822316,3.7804579216220606,0.1625124717995922
8.824704,3.7944235091608656,0.16231301060918568
8.827084,3.80373326890078,0.1622538777653145
8.829488000000001,3.813043028640694,0.1621947449214433
8.831872,3.8249139676344655,0.1620046520721191
8.834252,3.843722374427266,0.161580495260639
8.836648,3.8646726515933434,0.1610643379685404
8.839032,3.880547792079949,0.16073303561899724
8.841416000000002,3.895771306260497,0.1604090667162929
8.843808,3.907409927828791,0.16017948797238862
8.846195999999999,3.9174657575312484,0.1599744467350047
8.848576000000001,3.9280806657411476,0.15971027288546882
8.850988000000001,3.934831142085074,0.15956787612347959
8.853376,3.945725589548693,0.15927645751623812
8.855756,3.9518244395865607,0.1591350785259201
8.858156000000001,3.959133994437927,0.1589369738712094
8.860544,3.9664435492892927,0.15873818875830747
8.862924,3.969097276341768,0.15867254365212308
8.865328000000002,3.979387319327572,0.1583058746913021
8.867716000000001,3.9872559526863793,0.15805232278159256
8.870096,3.9884666574998784,0.1579971181456582
8.872500000000002,3.986185017499741,0.15809314095409485
8.874884000000002,3.9866968741789384,0.15810968824853844
8.877264,3.9898624579106112,0.15806227711401682
8.879668000000002,3.9964731646276763,0.1579424434625446
8.882052000000002,3.999731296157966,0.1579559261121159
8.884432,4.003920593248034,0.15794479432376374
8.886824,4.011322695898017,0.15781697725118005
8.889208,4.015651762614946,0.15779193389621063
8.891588000000002,4.020911994891652,0.157741235646391
8.893984,4.030548515713529,0.15759580832431497
8.896372,4.041907598028104,0.1574172983558064
8.898752000000002,4.055129011462234,0.15718619556578647
8.901148,4.0654171585901695,0.1570463009051166
8.903535999999999,4.0787783416511605,0.15680737958456326
8.905916000000001,4.095072791018346,0.15648763188027515
8.908332000000001,4.111646779639253,0.15614097960945097
8.910716,4.132644278633573,0.15563184720233114
8.9131,4.145353835388506,0.15539588661056158
8.915496000000001,4.158203161770299,0.1551450154448768
8.91788,4.177710416697401,0.15471005220185166
8.920259999999999,4.201920721251637,0.15408819493662962
8.922676,4.223057989872817,0.15356607939144126
8.925060000000002,4.240610365881746,0.15312961732248728
8.927444000000001,4.25443807965156,0.15279417045233087
8.929848,4.268685102301956,0.15242179629207728
8.932236,4.28386329051213,0.15203132849878834
8.934616000000002,4.299693105028362,0.15164909030883206
8.937012,4.318456185850788,0.15118750944477777
8.9394,4.338429971486714,0.15067973586539304
8.941780000000001,4.353887698950608,0.15027559990647102
8.944176000000002,4.367622864921804,0.14990645965523114
8.946564000000002,4.381497800519862,0.14952411895288562
8.948944000000001,4.397654376118058,0.14906525700693016
8.951340000000002,4.408875584663641,0.1487385422136986
8.953728000000002,4.41623236134325,0.14851319690678827
8.956108,4.425311699515556,0.14825974338243347
8.958512000000002,4.436113599180558,0.14798472639846827
8.960900000000002,4.45385296664459,0.14752628373952328
8.963276,4.47294280854898,0.14701282279989628
8.965672000000001,4.488587527467978,0.14656191771634897
8.968056,4.500088275267281,0.1462326442331427
8.970436,4.513079267133803,0.14583357449602266
8.972828,4.527932590119883,0.14539409435760595
8.975216,4.541063351613265,0.14498051145760435
8.977596000000002,4.551400616427314,0.14462747988322933
8.980008000000002,4.560946485308444,0.1442863867818757
8.982392,4.571982598256792,0.14388436434760615
8.984772,4.582367084899084,0.14348269759544352
8.987188,4.591820405981597,0.1431022010096465
8.989571999999999,4.603555367064246,0.14264943872701652
8.991952000000001,4.616361263333535,0.142168768749427
8.994356,4.634242296282295,0.14156981684417513
8.996744,4.64877075404428,0.14107503609222521
8.999124000000002,4.66637224773932,0.14049666957613438
9.001528,4.683042575874582,0.13993150098049612
9.003912,4.697198946584229,0.13940209199181752
9.006292000000002,4.702415748748431,0.13908584594283624
9.008688,4.7049788238601575,0.13881633105997646
9.011076,4.706470963785247,0.13857753813173368
9.013456,4.71061683076281,0.1382969110571067
9.01586,4.718906668860066,0.13791292701892455
9.018244,4.730129773263518,0.13746994516999486
9.020628000000002,4.740841020987773,0.13701321009276562
9.023032,4.753414599831583,0.1365197797444972
9.025416,4.765988178675395,0.13602147111472146
9.0278,4.778049900840008,0.13551050830441622
9.030204,4.78517625595201,0.1351115160425452
9.032588,4.78750701363826,0.13480834264986022
9.034968,4.793050576884426,0.13442339502420605
9.037372,4.794450169010896,0.13413912836162786
9.03976,4.793987430017811,0.13388924650359443
9.04214,4.785795827292779,0.13379643835270433
9.044536,4.778023533448327,0.13367030551175224
9.04692,4.773324275536932,0.13347193582509934
9.049300000000002,4.772629219118367,0.13318559333940636
9.051704,4.7727255586327235,0.13289347696178425
9.054092,4.780038905199828,0.13242783103822856
9.056472,4.786421086207154,0.13197885821842123
9.058876,4.792151640908422,0.131524291253309
9.06126,4.795368238184077,0.1310989657470468
9.063636000000002,4.790855971727785,0.1308258058967419
9.066032,4.782339503778659,0.13063987506159502
9.068416,4.771401626202536,0.1305300652269079
9.070796,4.76167445343991,0.13038121308594655
9.073192000000002,4.756603108476176,0.13015224358862057
9.075576000000002,4.750181289072082,0.12997140264052606
9.077972,4.7446906352277685,0.1297739442948597
9.080368,4.744786974742123,0.12947941748868316
9.082756,4.739528638323285,0.1293203864755756
9.085136000000002,4.7390658993302,0.12907022737454646
9.087532,4.741117117762729,0.12879497398345197
9.08992,4.747172537688091,0.1284334156109443
9.092300000000002,4.7520172527999565,0.12810776808009613
9.094696,4.755791032725183,0.12781362290045986
9.097084000000002,4.758773416717492,0.12752690078058107
9.09948,4.761755800709799,0.12724047857455242
9.101876,4.7638070191423285,0.1269717838783454
9.10426,4.767580799067555,0.12668442462556406
9.106640000000002,4.772797601231757,0.12639990384077976
9.109044,4.779597195261794,0.1261080226535786
9.111432,4.793706344143198,0.1257072284401229
9.113812,4.8116799248905755,0.1252409661075289
9.116208,4.829001879331894,0.12476093582829992
9.118596,4.842831488959578,0.12437848533332148
9.120976000000002,4.854798767467705,0.12403077190074005
9.123372,4.871561643401586,0.12360457494088059
9.12576,4.888184749708604,0.12318681645828798
9.128140000000002,4.901874589709428,0.12282465018696627
9.130536,4.914773033777333,0.12246057970773602
9.132920000000002,4.924738211539044,0.12215250349766896
9.1353,4.932049662248279,0.12187862019227291
9.137716,4.936008537770738,0.1216904871425129
9.1401,4.94490278034581,0.12140984205403342
9.14248,4.9508637566146865,0.12118424700549497
9.144876,4.955614028070065,0.12099512976047154
9.14726,4.959572903592524,0.12080961717259266
9.149644000000002,4.9593878079952916,0.12071173535666554
9.15204,4.958271546838278,0.12062812967641046
9.154428,4.957295055308126,0.12053435279495575
9.15682,4.955247628591335,0.12046496726286868
9.159216,4.949615309262291,0.12044021255517151
9.161604,4.937045522134219,0.12054279589083873
9.163984,4.931133663551455,0.12053823905866123
9.166388,4.931647416088522,0.1203907400322821
9.168776,4.932440707879309,0.12022364195906099
9.171156,4.929509337430983,0.1201100861981817
9.173560000000002,4.928719837355934,0.11995044386099489
9.175944,4.928209876534606,0.11977010317201968
9.178328,4.9357083186989446,0.11944781992387643
9.180732,4.945348631236561,0.11908035836466621
9.183120000000002,4.952847073400899,0.1187553851171648
9.1855,4.962487385938515,0.11838230468772562
9.187896000000002,4.9681234969832975,0.1180836869467024
9.190284000000002,4.972688672841441,0.11780637155814938
9.192664,4.973249647206751,0.11759996709076155
9.195060000000002,4.973531082318341,0.11741347225487382
9.197448,4.9755350789226265,0.11720881499705449
9.199828,4.9752574355267765,0.11706178544527678
9.202224,4.970184194705173,0.11699336868180649
9.204612,4.962317457204235,0.11696681433322763
9.206988,4.951517453397102,0.11699427972339409
9.209392,4.947794687015858,0.11687939174331402
9.21178,4.938345157649084,0.11685928052569725
9.21416,4.92167862122956,0.11698865426613976
9.216552,4.899936948130565,0.11722115411629115
9.21894,4.873911534285015,0.11755837914891312
9.221332,4.845884019693048,0.11793279281473351
9.223728,4.8205102321535565,0.11827182563361069
9.226116,4.787128041628397,0.11875949960107761
9.228496,4.753885620730098,0.11922834323267466
9.230900000000002,4.724787170951494,0.119612941917666
9.233288000000002,4.69461778598625,0.12002282828896436
9.235668,4.664727940274726,0.12041308946525367
9.238064,4.636700425682759,0.12077870633652656
9.240452,4.6176124796362386,0.12097431688336757
9.242832,4.599595468776356,0.12114589457469721
9.245236000000002,4.584931033103249,0.12123209912741899
9.24762,4.573758942243778,0.12122419626680248
9.25,4.570315715116255,0.12108554809257369
9.252396,4.568595049481428,0.12092926555182847
9.254784,4.572601146832131,0.12067798454503237
9.257164,4.570321402689863,0.12056432099818762
9.25956,4.569764220040292,0.1204331363852267
9.261948,4.571209138137138,0.12026148715530433
9.264332,4.5760991792193755,0.12005201029615829
9.266728,4.5840622562346685,0.11977207716198107
9.269112,4.590814628436462,0.11952731395158274
9.271508,4.593562799145425,0.11936549729436988
9.273904000000002,4.600966797653276,0.11912748124713383
9.276292000000002,4.603947285787714,0.11900608280177456
9.278672,4.606788004295292,0.11889700718209686
9.281072000000002,4.611630823549287,0.11874673573731051
9.283460000000002,4.615123168362924,0.11864445771351083
9.28584,4.618895052430281,0.11851973086464188
9.288244000000002,4.615729468698609,0.11853412791559019
9.290628000000002,4.613355280899853,0.11854476420812682
9.293008,4.60949084903388,0.11861393922525415
9.295404,4.604275942727548,0.11873007883708667
9.297792,4.594125669368603,0.1189374853141161
9.300176,4.585046331196298,0.11912066374277058
9.302572,4.5739648922775755,0.11934146329706546
9.30496,4.568098359665185,0.11944831555188473
9.30734,4.566236028545628,0.1194760615721187
9.309736,4.568238129292045,0.11943779419742692
9.312124,4.570939078172763,0.11934565119300498
9.314520000000002,4.576713062986535,0.11919161319039395
9.316916,4.588493350039558,0.11892563250000802
9.319300000000002,4.6045573778391375,0.11856368065267785
9.32168,4.61796767858624,0.11823290893615333
9.324084,4.636453116012817,0.11780115288039102
9.326472,4.654938553439391,0.11737322817615098
9.328852,4.67142189011955,0.11698312047592206
9.331256,4.6896277882924045,0.11657277293443509
9.333644,4.707414377584678,0.11619504915844422
9.336024000000002,4.725852593183011,0.11582037224903703
9.33842,4.741357542475148,0.11549595969735554
9.340808,4.7552796999014495,0.11517741527242603
9.343188,4.772135123633946,0.11481097420907095
9.345584000000002,4.790713108859137,0.11442757468425242
9.347972000000002,4.812503899644246,0.11397750091446625
9.350356,4.836436560802631,0.11348392985714027
9.352748000000002,4.857156416401102,0.1130638902529659
9.355136000000002,4.872009739387181,0.11274667343829478
9.35752,4.882207234574369,0.11249557754061336
9.359916000000002,4.892776816813893,0.11227469804333275
9.362304000000002,4.901064759053281,0.11211179907501351
9.364684,4.9053484997998344,0.11202139592246133
9.367084000000002,4.907350600546252,0.11198682393723583
9.369468,4.90800222685231,0.11199496173789146
