Time,Force,Position
12.868543999999998,8.138739006650349,0.05216356993267384
12.87094,8.149450254374603,0.0520073320357956
12.873328,8.160952898031773,0.05185597772694489
12.875707999999998,8.168591109822973,0.05171219300371575
12.878104,8.173668142360315,0.05159510573080609
12.880491999999998,8.179816110084296,0.05147215501924448
12.882872,8.189688740047389,0.05134807232116611
12.885267999999998,8.197419499637206,0.05123478681676995
12.887655999999998,8.20622119441366,0.05111597427606419
12.890036,8.212741249189977,0.051013204364034094
12.892431999999998,8.220192469526072,0.050910290544035786
12.894819999999998,8.223359949115615,0.050829164458310136
12.897215999999998,8.221312522398824,0.05077011970605717
12.899612,8.222198361988228,0.05070473601002413
12.901996,8.226157237510689,0.05062813685750849
12.904379999999998,8.22890540821965,0.05056198918272277
12.906776,8.229651478182193,0.05050135133701139
12.909164,8.22224937553221,0.05046867558080918
12.911547999999998,8.215778438442007,0.05043564837775737
12.913944,8.206374235045605,0.0504084232953862
12.916332,8.200974233142038,0.050370040268973425
12.918711999999998,8.198787036798388,0.05031595435648816
12.921112,8.197019149335317,0.050247009321160156
12.9235,8.196042657805165,0.05018276025780245
12.925879999999998,8.194274770342094,0.050113660194493835
12.928276,8.196231545118138,0.050043857459847844
12.930663999999998,8.193392722468428,0.04998016687822958
12.933044,8.19055389981872,0.049916190723178586
12.935439999999998,8.186923681236093,0.04984730727575375
12.937831999999998,8.183712771534047,0.0497632343719145
12.940212,8.177708365152665,0.04967955303679836
12.942607999999998,8.174916764331199,0.04958023124305011
12.944995999999998,8.174406803509871,0.04946529989811031
12.947392,8.175247317128902,0.04933536979154112
12.949788,8.173014794814877,0.04921575979880282
12.952176,8.170782272500851,0.04909587760936874
12.954555999999998,8.17320557798572,0.048975287329093814
12.956952,8.178701919403643,0.0488434121125819
12.95934,8.174559844141816,0.04875783602578104
12.961719999999998,8.169252390036867,0.04874901137461272
12.964116,8.163523731193466,0.048857348903563004
12.966504,8.15821058951491,0.049151174302791804
12.968883999999996,8.16443972989029,0.04964916988680087
12.971288,8.187937915305143,0.05032679547431719
12.973676,8.22963631131924,0.05117018684342693
12.976055999999998,8.285298399014273,0.05215611937424761
12.978452,8.35692627913666,0.05327657764139074
12.98084,8.444427403887785,0.05449923377869595
12.983223999999998,8.54486850696145,0.05582926359303689
12.985628,8.657318422797877,0.057264734638198665
12.988016,8.781916921023926,0.05879925141505418
12.990396,8.914008173840708,0.060435926515057206
12.992796,9.054104037927418,0.062184269217213865
12.99518,9.201785204403476,0.0640513923011509
12.997564,9.367853572933885,0.06598951674136953
12.99996,9.548677029078148,0.06802471778872056
13.002348,9.742253472089848,0.07015422200418542
13.004727999999998,9.952075246782623,0.07235357528202699
13.007124,10.187967761291322,0.0745401596462678
13.009512,10.438619155129619,0.07665841207835539
13.011895999999998,10.686571495945064,0.07869255437846719
13.014292,10.929732031050495,0.08054516253727335
13.01668,11.15581051257156,0.08219151186871979
13.019059999999998,11.352422248977422,0.08368149225960089
13.021456,11.523291902507191,0.08501624336716067
13.023844,11.668372251332627,0.086236362183085
13.026227999999998,11.792551440678098,0.08735486126599028
13.028624,11.899786450208193,0.08838541955634069
13.031012,11.986584935109278,0.0893671696943605
13.033395999999998,12.058301571314546,0.09026822036218547
13.035792,12.116286833264356,0.09107799641836165
13.03818,12.159190246518348,0.09181819882036875
13.040576,12.185708558464404,0.09248342800093971
13.042972,12.192396646117134,0.09308445147649469
13.04536,12.172317041677507,0.09366005794905337
13.04774,12.129660938093464,0.09416389461121596
13.050136,12.061215529805086,0.09462694916760571
13.052524,11.969355004611128,0.09505219184223838
13.054908,11.848397925496435,0.09551597282978135
13.057304,11.702765906976547,0.0960595709675747
13.059692,11.55289736953835,0.09662102226255406
13.062072,11.401259048779211,0.0972148866956577
13.064472,11.245289765445277,0.09787945572113911
13.06686,11.098632137709124,0.09851258459412776
13.06924,10.95341753221195,0.09916435684337596
13.071636,10.812718984886805,0.09981175459788583
13.074024,10.670018336815245,0.10049401869673175
13.076403999999998,10.522242552064213,0.10123183596887028
13.078811999999996,10.38061283917929,0.10193888597257196
13.0812,10.237632651854012,0.10267932757027136
13.08358,10.095676177887128,0.10344643535012679
13.085976,9.958887388398331,0.10420874676294603
13.088368,9.832061880813376,0.10493125581594988
13.090752,9.713988950318763,0.10563846261314525
13.093147999999998,9.60150301318282,0.106333551149797
13.095532,9.496978257204303,0.10700445940460232
13.097916,9.401904926450428,0.10762907182390151
13.100312,9.314932546480836,0.10822166732317463
13.1027,9.23713205248217,0.10877685106168537
13.10508,9.174929055574257,0.10922136707038557
13.107483999999998,9.115799094599398,0.10964393101935763
13.109868,9.056110055117099,0.11009500186081808
13.112252,9.005872440859443,0.11048565819167477
13.114655999999998,8.955308065519825,0.11092275244774273
13.117043999999998,8.912704871337628,0.11132345290460798
13.119424,8.87061353383463,0.11174028385913973
13.121819999999998,8.84332829748947,0.11202860240051336
13.124207999999998,8.823911694503115,0.11225257206225077
13.126588,8.80742835782296,0.11245169411242967
13.128984,8.796811553755191,0.1126013838089459
13.131372,8.789267785620478,0.1127202823043517
13.133752,8.7845175141651,0.11281906654847054
13.136151999999996,8.777765141963307,0.11293664216359775
13.13854,8.775016971254345,0.11301623041087272
13.14092,8.778135333157774,0.11304432171539873
13.143323999999998,8.782324630247842,0.11306007473243967
13.145711999999998,8.789307424017245,0.11305567164619214
13.148092,8.796569757040368,0.1130401035894591
13.150496,8.807184665250267,0.11298181334860181
13.152883999999998,8.816728638273526,0.1129366503145126
13.155264,8.83092843909568,0.11285842907631606
13.157659999999998,8.85341618215722,0.1126937465964598
13.160047999999998,8.874832990032122,0.11254142375295939
13.162428,8.90453774014641,0.11230359643525703
13.164827999999998,8.930517828021586,0.11209139576411473
13.167215999999998,8.959431182202959,0.11185117615870671
13.169596,8.978473802279105,0.11170160991111146
13.171995999999998,8.99900666642247,0.11152375807735526
13.174379999999998,9.019819069819558,0.1113357987195715
13.176764,9.040771242843505,0.1111428431170844
13.179159999999998,9.060792250307674,0.11095648579468786
13.181547999999998,9.080161631465785,0.11076635024448232
13.183932,9.099531012623896,0.11057591910062943
13.186327999999998,9.121182033782143,0.11035861837662599
13.188715999999998,9.140691184567112,0.11016545338057086
13.1911,9.158058464978806,0.10999575701849963
13.193495999999998,9.172492479084305,0.10985094793642337
13.195883999999998,9.185855558003164,0.10971812405748552
13.198264,9.195633744309772,0.10960576521383296
13.200663999999998,9.200104476511429,0.10952090054054375
13.203051999999998,9.202620329794913,0.10942307573682868
13.205432,9.199828728973449,0.10935252470905728
13.207836,9.19931876815212,0.10925347742730147
13.210219999999998,9.191079943598846,0.10921473492967032
13.212604,9.187124859792123,0.10912969637810717
13.215004,9.183868624119704,0.10901759199764302
13.217391999999998,9.184104733260918,0.10885943450953006
13.219772,9.18182688497652,0.10870897669175422
13.222176,9.172099712213894,0.10860731574860655
13.224564,9.158415559786677,0.10850914766512157
13.226943999999998,9.145709794747482,0.10837262198751664
13.22934,9.12583424448378,0.10827460086389454
13.231728,9.10665754235438,0.10814894392824899
13.234108,9.079891746119896,0.10807772292736222
13.236512,9.05447642432577,0.10798360492159231
13.238896,9.029899720292805,0.1078561081569245
13.241279999999998,9.004019763647722,0.10771848048449235
13.243684,8.973623748830608,0.10760662826213754
13.246072,8.943647042894073,0.10747726931652217
13.248452,8.914229415464982,0.107324989546564
13.250848,8.878014089863722,0.10722778083543712
13.253236,8.83672362758299,0.10718028563822474
13.255615999999998,8.788915006383808,0.10717778617345292
13.258012,8.741246154811488,0.10717075803391939
13.260395999999998,8.688641936186556,0.10720706674084735
13.262779999999998,8.633756077561484,0.10727301165063886
13.265176,8.577659514122917,0.10735546906434086
13.267559999999998,8.522354346617266,0.10743520861842458
13.269944,8.474917812470423,0.10744554004678473
13.272339999999998,8.429855466122335,0.10745326495153228
13.274727999999998,8.378507278281274,0.10752979229246014
13.277108,8.335027723799023,0.1075359675126023
13.279507999999998,8.286473032637296,0.10759341326331053
13.281895999999998,8.239920442221987,0.10763242696686945
13.284276,8.189782959194424,0.10769166380917125
13.286671999999998,8.138015462472783,0.1077874004987538
13.289059999999996,8.087830757616977,0.10788167701549049
13.29144,8.03978792313445,0.10795295383910775
13.293839999999998,7.987461347905366,0.10807841307817086
13.296227999999996,7.933784298235922,0.1082307540353683
13.298623999999998,7.881969579686038,0.1083735776921605
13.30102,7.834159062628985,0.10847890175392838
13.303408,7.784206675198655,0.10861823437692007
13.305787999999998,7.731181251835271,0.10879858892304334
13.308184,7.677084893285248,0.1089987212545626
13.310572,7.620986433988809,0.1092263491811816
13.312951999999996,7.560883773199536,0.10950461997943955
13.315347999999998,7.49542643647707,0.10986329990187603
13.317735999999998,7.42554558938119,0.11028807324834511
13.320116,7.3508691448595584,0.11076876173816791
13.32252,7.279777592950179,0.11123346162490995
13.324908,7.2042625306673855,0.11176639745892984
13.327287999999998,7.129678633944372,0.11230341824711355
13.329692,7.050671226847944,0.11292456763929867
13.33208,6.972687533109911,0.11358045345948557
13.334459999999998,6.897357566424354,0.11422097023506249
13.336856,6.822399686791132,0.11488537251146652
13.339244,6.751678326076221,0.11552690589556348
13.341623999999998,6.686683728346842,0.11611367078023394
13.344024,6.625925649535775,0.11668042783474787
13.346412,6.572616895202933,0.11717039676116302
13.348791999999998,6.5239639686689825,0.11761079611634251
13.351188,6.486764568106093,0.11792874591229577
13.353576,6.458085427208067,0.1181597279452175
13.355959999999998,6.437926545974909,0.11830140038332432
13.358356,6.427079320339533,0.11835237998731318
13.360739999999998,6.422470714368883,0.11835531111579513
13.36312,6.4247995761972625,0.11827138684743196
13.365528,6.430061704331839,0.11815161296514813
13.367916,6.440631286571363,0.1179886828105397
13.370295999999998,6.453063199930446,0.11780592132195676
13.372692,6.465215574035808,0.11763552093334238
13.37508,6.483746337432757,0.11740435841398031
13.377463999999998,6.513218770121569,0.11702660008336642
13.379868,6.547766339489852,0.11657718720874287
13.382256,6.58045157773858,0.11614519940775529
13.384636,6.615138916733724,0.11568520259440154
13.387032,6.64875532054223,0.11524447868374404
13.38942,6.683163120283654,0.11480428912631133
13.391799999999998,6.714125797039685,0.11438565109815849
13.394196,6.740153106743103,0.1140349512564354
13.396584,6.762176214953688,0.11374045628632928
13.398963999999998,6.776330689805468,0.1135466977106382
13.401368,6.789833538351187,0.11335035079921234
13.403756,6.799471955030934,0.11320059641673051
13.406135999999998,6.803383608725151,0.11311408999443553
13.408532,6.810647837606144,0.1129724179716084
13.41092,6.819774397606693,0.11281478466763083
13.413303999999998,6.8289009576072415,0.11265741032684079
13.4157,6.841519862421427,0.11243924900172457
13.418088,6.855489241675972,0.11219179985958877
13.420467999999998,6.874953066490567,0.11185782693916563
13.422872,6.894184573879686,0.11150124498750769
13.42526,6.91062258458947,0.11117580611278981
13.427639999999998,6.924686407500501,0.11085656410902794
13.430036,6.943033971158084,0.11047791763110897
13.432424,6.961800843696251,0.11008050636414651
13.434803999999998,6.9789849243685795,0.10968414679231418
13.437208,6.994306673921352,0.10930422601775731
13.439596,7.014703560153596,0.10886408551234583
13.44198,7.033377884893145,0.10842998412727348
13.444376,7.051680122580356,0.10797443417733503
13.446764,7.076268201760536,0.10743636230944606
13.449148,7.096712309821024,0.10695243219874123
13.451544,7.116225252321733,0.10647620929097165
13.453928,7.136157503703023,0.10597797850165754
13.456312,7.148360891352366,0.10555851158097347
13.458716,7.153906350456401,0.10520134217432639
13.461104,7.1618732191874335,0.10480241889472477
13.463484,7.163554246425495,0.10448547318153431
13.46588,7.165095504036695,0.10417675451198916
13.468268,7.165565826461258,0.10388426151427953
13.470648,7.162543804072183,0.10364920555876282
13.473044,7.154586414630498,0.10346481255355855
13.475432,7.145278550748454,0.10330807242603382
13.477816,7.136622313172467,0.10315791002861686
13.480212,7.127966075596478,0.10300764809172976
13.4826,7.124105435446243,0.10281516396907603
13.484979999999998,7.122386665669286,0.10259515991326876
13.48738,7.11824648626533,0.10241652064955442
13.489768,7.119972839473766,0.10218301094664994
13.492147999999998,7.125935711600511,0.10193590879318491
13.494548,7.130548109286897,0.1017177196793561
13.496936,7.139444247719839,0.10144675134917924
13.499316,7.149271551712559,0.10116894385527415
13.50172,7.1597504820113365,0.10089782195467528
13.504108,7.175025009735865,0.10058577003716623
13.506488,7.194024199699507,0.1002449867892928
13.508884,7.209251505595794,0.09997216615068048
13.511272,7.229833487425273,0.09963276478751908
13.513656,7.249484303694974,0.09930163309680655
13.516059999999998,7.268855580710954,0.0989858826426508
13.518447999999998,7.289018253659851,0.09866935120803055
13.520828,7.314628150340559,0.09832021284542242
13.523224,7.341308982207905,0.09795810166159326
13.525612,7.361052346276223,0.09766148782087722
13.527992,7.376511969597986,0.09741707032353991
13.530388,7.389829722546471,0.09720129863589612
13.532776,7.401145374748541,0.09700572639898376
13.535156,7.411809400644551,0.09680333903672408
13.537556,7.41739828986109,0.09665316577201409
13.539944,7.419262516838516,0.09652883728840171
13.542324,7.416470916017052,0.09643590058490782
13.54472,7.408184869635532,0.0964135670097504
13.547108,7.404042794373707,0.09634651602705391
13.549487999999998,7.399900719111882,0.09627941743694926
13.551888,7.398691910156253,0.09618790500282212
13.554272,7.404280799372794,0.09604313597635548
13.556672,7.410288997469913,0.09587871869884741
13.559067999999998,7.4148069514998145,0.09574659519839818
13.561455999999998,7.4171830351564365,0.09563864099690528
13.563836,7.41955911881306,0.09553107253126132
13.566231999999998,7.420631949857568,0.0954095849476311
13.568619999999996,7.417188722730045,0.0953110080920958
13.571,7.414397121908579,0.09521936001763462
13.573399999999998,7.415749492206807,0.09508498152600987
13.575787999999998,7.421245833624729,0.09490779161207272
13.578168,7.4258110094828735,0.09473684322250148
13.580571999999998,7.431819207579992,0.0945733972402508
13.582959999999998,7.43861880161003,0.09441050084436707
13.58534,7.449282827506042,0.09421818452116959
13.587739999999998,7.459946853402053,0.09402547530284708
13.590123999999998,7.474615080790899,0.09379668876078331
13.592508,7.494637984112936,0.09350670113181786
13.594903999999998,7.508514815568863,0.09327854343610782
13.597291999999998,7.525604452584705,0.09301644443259761
13.599672,7.538689888107715,0.09279171351349952
13.602067999999996,7.5392508624730254,0.09265824619157684
13.604456,7.541162311278696,0.09250053581151932
13.606836,7.542422133778307,0.09233610550783045
13.609232,7.546615222584112,0.09214889933848289
13.61162,7.547223418777666,0.09197694839212076
13.614,7.552766982023831,0.09176619717456852
13.616403999999998,7.561523350829913,0.09152086531335825
13.618791999999996,7.570047402210516,0.091250765033134
13.621176,7.5785714535911195,0.09098114366555479
13.623571999999998,7.588445979412082,0.0906899031513678
13.625959999999996,7.596737713367208,0.0903963342691281
13.628344,7.606659461016413,0.09006864207355558
13.630739999999998,7.617791913479118,0.08972470473720019
13.633127999999996,7.627481343702847,0.08937421762984195
13.635508,7.6373105435534345,0.08901708161482853
13.637916,7.646068808217384,0.08867215704851415
13.640304,7.653104511388638,0.08833274283445186
13.642683999999996,7.662561624186889,0.08795902440582512
13.645084,7.66573289549217,0.08764477699023095
13.647467999999998,7.6661106701181145,0.08734394603656497
13.649851999999996,7.674496847729727,0.08697883680902921
13.652247999999998,7.68274325571448,0.08662073355065728
13.654635999999998,7.689267102206536,0.08626576093826241
13.657019999999996,7.693276991272977,0.08591285192112728
13.65942,7.70194270813831,0.08553627491690832
13.661808,7.704043044256951,0.08523074555497086
13.664191999999998,7.703721970748596,0.08495904715912346
13.666588,7.70298158835966,0.08470580468866536
13.668976,7.700378874851166,0.08446128421186712
13.671355999999998,7.695075212461956,0.08426262574298668
13.673756,7.693356442684998,0.0840520008924031
13.676144,7.686422766601707,0.0838876110118477
13.678527999999998,7.678418155331778,0.08373366657395531
13.680924,7.66920283924835,0.08359572771432822
13.683312,7.662920789471117,0.08343872432767688
13.685695999999998,7.658640840440301,0.08326745617779957
13.688092,7.652079251409348,0.0831221474600832
13.69048,7.645098353497815,0.08299452916470487
13.692859999999998,7.643472131519474,0.08281604221615485
13.69526,7.644779175847328,0.08261843036018583
13.697648,7.644084119428766,0.08243580957297218
13.700027999999998,7.642969754129622,0.08227102778810871
13.702428,7.645580051069591,0.08209015142520938
13.704816,7.652985945435314,0.08188402119398105
13.707199999999998,7.657458573494841,0.08169621132226115
13.709596,7.667565416741281,0.08144750844970133
13.711984,7.680885065547637,0.0811701770632344
13.714363999999998,7.693133779167353,0.08090266740401116
13.71676,7.712180190959239,0.08059861450531403
13.719143999999998,7.728061019019453,0.08028515780661769
13.721527999999998,7.739286019280774,0.07999113747406845
13.723932,7.757728026594844,0.07964249869792751
13.72632,7.7760302642820545,0.07930029266303039
13.728704,7.796055063461962,0.0789570015608686
13.7311,7.813146596335673,0.07863218843364528
13.733488,7.826094158089691,0.078340025090549
13.735872,7.843977086896322,0.07801911577099609
13.738268,7.861999785329812,0.0776929990367667
13.740656,7.877089217457106,0.07738510724712853
13.743035999999998,7.894320519957679,0.07706063024843098
13.745436,7.91127228320453,0.07674832249784279
13.74782,7.927712189772184,0.07642239809169418
13.750199999999998,7.942149995593422,0.07611075598706869
13.752604,7.953235226227883,0.07583370182314025
13.754992,7.965391392048983,0.075547672015787
13.757371999999998,7.978199184176141,0.07527264718327784
13.759776,7.985140443690908,0.07502793916779565
13.762164,7.992873099138594,0.074785421003331
13.764544,7.99380805641411,0.07457759906109988
13.76694,8.002052568540995,0.07435071065065342
13.769328,8.01388197328013,0.074116689381494
13.771708,8.016632039846963,0.07393856283746034
13.774104,8.019382106413792,0.07376053713924219
13.776492,8.020549381114787,0.0735776252547107
13.778871999999998,8.024510152495115,0.07338610953416329
13.781268,8.0315439598085,0.07317438969347247
13.783656,8.036575666375468,0.07297555805536685
13.786039999999998,8.042538538502214,0.07277435813959295
13.788436,8.050223972121655,0.07257331858363252
13.790819999999998,8.05562776574096,0.07239528222903353
13.793203999999998,8.061171328987125,0.0722119771295902
13.795608,8.067086979285628,0.07204769207337612
13.797992,8.075796126263464,0.07187609208000256
13.800375999999998,8.084784812495023,0.07169378239598548
13.80278,8.093633729099722,0.07151718448167016
