Time,Force,Position
12.105268,8.444983367616793,0.04974221972386416
12.107656000000002,8.434138037839286,0.04960308723844753
12.110036,8.417938032128585,0.049489131400947656
12.112436,8.398525220857971,0.049390048650938795
12.114824000000002,8.379112409587355,0.049290538391243775
12.117204,8.358116806450905,0.04918104336533439
12.119600000000002,8.331254670702062,0.04908164296288978
12.121988000000002,8.304020447900884,0.0489621213925039
12.124372,8.277577621032624,0.04884666423089387
12.126768000000002,8.248853154164225,0.04874596447025092
12.129156000000002,8.219057752109189,0.04864955363456562
12.13154,8.194057947479902,0.048546966974322016
12.133936000000002,8.168918373223757,0.04844910791841134
12.136324000000002,8.142847633407833,0.0483508768039744
12.138708,8.117428519897967,0.04826197656714464
12.141104000000002,8.089076140081906,0.04817730692951787
12.143492000000002,8.060304451385264,0.0481073155305705
12.145876,8.031253223434902,0.04804695514946858
12.148272000000002,8.0011310602979,0.04799116651465991
12.150660000000002,7.9710088971609,0.04793511850675286
12.15304,7.943820000330095,0.047873571395268454
12.155436000000002,7.913697837193094,0.04781652470274576
12.157824000000002,7.883715443682954,0.04775408635171875
12.160204,7.8545244461057315,0.04769681215709991
12.162604000000002,7.824402282968731,0.04763918534711698
12.164988,7.7929296453913715,0.04759675773826236
12.167384000000002,7.770256806732598,0.04753822518980842
12.16978,7.745022788819966,0.047505545086859044
12.172168,7.721651102026891,0.04747286320032712
12.174548,7.695346148927621,0.047445351796547096
12.176944,7.666759555828214,0.047433843972363186
12.179332000000002,7.637241797169028,0.0474218831569213
12.181712,7.608934743323341,0.047399143571719815
12.184116,7.574481617611544,0.04739769015831059
12.186504,7.53695545596669,0.04740700897531972
12.188884000000002,7.499941151001034,0.04743321002657356
12.191288,7.458131248609626,0.04746527612615775
12.193676,7.414319245471802,0.04750336599260641
12.196056000000002,7.3722298038266745,0.04754760757392433
12.198452,7.330140362181548,0.047592073944579386
12.20084,7.285769280536281,0.047653945561719424
12.203220000000002,7.236974688517602,0.047746274733326224
12.205624,7.191113362805118,0.047832747267423315
12.208012,7.142598310040158,0.047914495079999765
12.210392,7.098739085074091,0.04799620059957624
12.212792,7.05781312641422,0.04807269168423874
12.21518,7.00766805995518,0.04818457533363993
12.21756,6.960735799056058,0.04827964796273522
12.21996,6.913151911850878,0.048362359017069374
12.222344,6.869572226138531,0.048433636578798824
12.224728,6.8290655763592385,0.04849420031674672
12.227124,6.7873482217664485,0.04856694918174828
12.229512,6.744699701613879,0.04863927807835324
12.231892000000002,6.710199354073838,0.04868151718892599
12.234288,6.676769941720436,0.04871831070096091
12.236676,6.648834974927087,0.04871834772859066
12.239060000000002,6.626766540746128,0.04870626336174686
12.241456,6.605769041751807,0.04868818362585047
12.243844,6.585842477944125,0.04866413866845125
12.246224000000002,6.5667073100693605,0.04864628696962544
12.248628,6.548131220702037,0.04860364394083935
12.251016,6.535980742454544,0.04852335108216693
12.253396000000002,6.518894897154441,0.048455242897128076
12.255792,6.501669282227477,0.048392860348509883
12.25818,6.477134112449146,0.04832390835422861
12.260560000000002,6.449014050058562,0.04824802364025799
12.262964,6.4199628221082,0.04817266072167131
12.265352,6.387419249344202,0.04813115471311956
12.267732000000002,6.3541296066176605,0.048171611211661705
12.270128,6.316414557659834,0.04838893995578281
12.272516,6.2830266795610665,0.04880527528896086
12.2749,6.254710146426033,0.04947242511332052
12.277304,6.241520787957192,0.050404964168906975
12.279688,6.238755554527407,0.05162882086287465
12.282072,6.2512572653906755,0.05307047725555261
12.284468,6.273159387934607,0.054734478758175886
12.286852,6.307302640666776,0.0565585408923761
12.289236,6.356108433214183,0.058511776829034266
12.291632,6.417202577778072,0.06057245709759605
12.294016,6.489933448052388,0.06273186919444876
12.296396,6.577466627768801,0.06499389254709927
12.298804,6.6776602465540345,0.06736410059503344
12.301188,6.796241067393618,0.0698238304376808
12.303572,6.935071421407109,0.0723514680120898
12.305968,7.093033151579625,0.07499621828288722
12.308356,7.271197193097806,0.07773107290361507
12.31074,7.47310311260353,0.08048470174323692
12.313136,7.692931599312652,0.08324807916405993
12.315524,7.924910564269264,0.08597429767903461
12.317908,8.174304031465818,0.08848405617899653
12.320304,8.421884285228925,0.09079413016025366
12.322692,8.668025308468795,0.09281965227813452
12.325072000000002,8.89736381737802,0.09456901219066678
12.327472,9.1118093649044,0.09601545550155371
12.329856,9.312106125152608,0.09721719261753288
12.332240000000002,9.502350847414096,0.09819029402301734
12.334636,9.67784048206173,0.09900525565570055
12.337024,9.841088986521125,0.09967310943254735
12.339404000000002,9.99060611672506,0.10022911613631574
12.3418,10.127043498979594,0.10068474387482337
12.344188,10.244814139926058,0.1010735748684225
12.346572000000002,10.344616887698749,0.1013766281936927
12.348968,10.430735483044227,0.10156109845693469
12.351356,10.494230357417042,0.10169519150061837
12.353752,10.544088301190886,0.10169106388200767
12.356148,10.57258045063381,0.10160412307111474
12.358536,10.581754232462604,0.10147853945151064
12.360916,10.576637561528495,0.10130616198152174
12.363316,10.558254151189885,0.10110622621639956
12.3657,10.524088148163285,0.10096184543201953
12.368084,10.487547957337929,0.10081808611400095
12.37048,10.447794960952654,0.10070163356133749
12.372868,10.406272181246443,0.10061697700255613
12.375248,10.35897541672646,0.10059353415965022
12.377648,10.304042336273147,0.10064339909913313
12.380036,10.238167586527972,0.1007733563514949
12.382416,10.163772577117932,0.10095848360760774
12.384812,10.081648703975942,0.10119701779178636
12.3872,9.991516427848287,0.10150510357515469
12.389580000000002,9.898311115787576,0.10184562523401033
12.39198,9.804966034100005,0.10220105018962611
12.394368,9.712644665770831,0.10258410088310091
12.396748000000002,9.613757916694963,0.10304263348753805
12.399144,9.519666765044848,0.1034733719066836
12.401532,9.415285570408928,0.10400866267044652
12.403916,9.310345297265567,0.10457474777883133
12.406312,9.201680361883094,0.10517268884327251
12.408696,9.0814221309027,0.10587873670041739
12.411096,8.958882259922166,0.10662652594659461
12.413492000000002,8.834200518568357,0.10741241096625138
12.41588,8.70965854684141,0.1081933175218236
12.41826,8.586047740674239,0.10896915865877677
12.420664000000002,8.466673453425381,0.10973841637552638
12.423052000000002,8.35325824658753,0.11050082543119048
12.425432,8.245569802735208,0.11123562065819988
12.427832000000002,8.14411997854761,0.11195476594337327
12.430216,8.054635537010274,0.11259885120287277
12.4326,7.968456448831468,0.11324933571381034
12.434996000000002,7.893870656250583,0.11380340522791983
12.437384000000002,7.823009525908812,0.11433792496889934
12.439764,7.755733288179296,0.11485902504736162
12.442168,7.692740791196334,0.11532894804382739
12.444556000000002,7.634264352385403,0.11577813264098402
12.44694,7.572295568760836,0.11629106926667539
12.449336,7.52150077185361,0.11671814406632511
12.451724000000002,7.4760134290513305,0.11711406608339413
12.454104,7.432108878114887,0.11751536367588
12.456504,7.400589018709282,0.11780148125561533
12.458892000000002,7.3730733607965115,0.1180432348997464
12.461272,7.348351199563076,0.11826324018251043
12.463668000000002,7.320136693516004,0.11854843036738463
12.466056000000002,7.289221238588216,0.11889759604297419
12.468436,7.255884374033431,0.11929857939242206
12.470836000000002,7.223758214292142,0.11967879847567707
12.473224000000002,7.193494385670411,0.1200429246256342
12.475604,7.167374528168377,0.12034890126956548
12.478004000000002,7.138321404360146,0.12068938551411573
12.480392000000002,7.11206177723125,0.12100589470328629
12.482772,7.08058724379602,0.12140031904333283
12.485168000000002,7.04976433666685,0.1218031504089984
12.487556,7.020943530284096,0.12218136624373122
12.48994,6.987699213527927,0.12264005934889785
12.492336000000002,6.955665601585259,0.1230780851758902
12.494724,6.930429687814758,0.12343425979405825
12.497108,6.903610982178419,0.12379516919135213
12.499504000000002,6.873859010235886,0.12419716967349051
12.501892000000002,6.847831700532469,0.12456181766136323
12.504272,6.819802290082633,0.12495422059360003
12.506668,6.791493340379076,0.12536356653760936
12.509056,6.767048822541493,0.12572427631576663
12.511436,6.747679441383383,0.12601351338877037
12.513836,6.73059170022541,0.126262758005359
12.516224,6.717136073507932,0.1264360907596766
12.518608,6.703400907536735,0.12662570810024326
12.521004,6.688594806378898,0.12683519490850814
12.523392,6.669644734101368,0.12711255159095183
12.525776,6.650554892196978,0.12739936413990277
12.528172,6.631465050292588,0.12768818151075684
12.53056,6.6163794098810325,0.12791854771284242
12.53294,6.602504474282974,0.12812297570820205
12.53534,6.586347898684777,0.12837548871567372
12.537728,6.574475063833136,0.12855318755342263
12.540108,6.5664666608474676,0.1286761845816639
12.542508000000002,6.552731494876269,0.1288768906619711
12.544896,6.537506084837854,0.1291228015217221
12.547276,6.524422545172714,0.12933161962855655
12.549672,6.509476674388016,0.12956512834399983
12.552064,6.4923889332300435,0.12984183529232457
12.554444,6.475440961698931,0.13011207746379153
12.556844000000002,6.455559723861622,0.13042621485798464
12.559232000000002,6.433676385277898,0.1307730078079998
12.561616,6.4150058522540885,0.13105797336926361
12.564012000000002,6.3959160103496995,0.13136711772214413
12.566400000000002,6.379107808445446,0.13162751762276573
12.56878,6.36402216803389,0.1318736324901126
12.571180000000002,6.352009563555389,0.13206874173426203
12.573568000000002,6.339205563143969,0.13226960620923534
12.575948,6.328683202732687,0.13242092542021686
12.578344,6.31615874157499,0.13260524259836307
12.580732,6.3014924100440135,0.1328323913445314
12.583116,6.29218075444623,0.13295586990949368
12.585512,6.284451890714283,0.13307060086277683
12.5879,6.2727188254895,0.13325002132288236
12.590284,6.264850192130693,0.13337381545491964
12.592684000000002,6.259263198772022,0.13344850920176274
12.595072000000002,6.255538536532908,0.13349818282450618
12.597452,6.255678306159768,0.13348986215811695
12.599848,6.261824378025881,0.1333820467640266
12.602240000000002,6.270624176944466,0.1332455132122955
12.60462,6.282497011796107,0.13305563502628118
12.607016000000002,6.299305213700361,0.13278939087085323
12.609408000000002,6.313040379671557,0.13257751809873053
12.611788,6.330128120829531,0.132298811032632
12.614188000000002,6.344934221987366,0.1320690643061041
12.616576000000002,6.3621617327722,0.13178448349176985
12.61896,6.379249473930174,0.13150832919424107
12.621356000000002,6.399270481394342,0.13118763508077816
12.623744000000002,6.423016151097625,0.1308262505286196
12.626128,6.4487639215473225,0.13043291010536467
12.628532,6.481728699049772,0.1299212202417809
12.630924,6.511620440619167,0.12946511554729118
12.633304,6.540860555882501,0.12900806985902147
12.635704,6.571590915213056,0.1285075153255079
12.638092,6.602740583424192,0.1279845664471303
12.640476,6.6391051579416605,0.1273834163396104
12.642876,6.674678336526211,0.1267886857907834
12.64526,6.708389183991205,0.12621996654712006
12.647636000000002,6.739306534776863,0.12568902415097274
12.650032,6.768641093696685,0.12516677974702556
12.652416,6.794250990377393,0.1246886239532871
12.654796,6.815205059259209,0.12426777910790457
12.657188,6.8392321640740805,0.12380137892870856
12.659572,6.858184132209479,0.12341264169935612
12.661952,6.8826305459049335,0.12293010512250305
12.664368,6.9040039236673305,0.12249615804294049
12.666752,6.924865444750531,0.12204993965938918
12.669132,6.94693767064723,0.12158257521950082
12.671536,6.962351967998622,0.12119691323958942
12.673924,6.978185574230594,0.12079122403183333
12.676304000000002,6.991225683783227,0.1204214585790445
12.678708,7.003614167029802,0.12004649802621034
12.681096,7.0162821895301,0.11965912738822161
12.683476,7.029601838336454,0.11927827256123924
12.68588,7.043712883075726,0.11889695773256179
12.688264,7.04967575520247,0.11862872647605978
12.690644,7.056569792888992,0.11835212955829791
12.693048,7.061601499455958,0.1180934256649458
12.695436,7.063979478970451,0.1178545328150064
12.697816,7.067568163298441,0.1175926524186262
12.700220000000002,7.074881509865543,0.11729405377434096
12.702604,7.080192755686231,0.11701946807654724
12.704984,7.082430965573862,0.11678773522922004
12.707388000000002,7.086159419528713,0.11651705162185325
12.709776000000002,7.081739700871035,0.11635673598629058
12.712156,7.078530687026857,0.11617257405785747
12.714552,7.075973299488735,0.11599347355189346
12.716936,7.0692719408309195,0.11587261991513051
12.719316,7.058286841426551,0.11581798545619412
12.72172,7.045299641275766,0.11578875019453931
12.724108,7.025095434072233,0.11586212474707251
12.726488,7.008755658734672,0.11588921373570729
12.72888,6.988411681904277,0.11596783694133947
12.731268,6.964482812461631,0.11607642260597581
12.733648000000002,6.9394830078323455,0.1162002682416084
12.736044,6.916205764695756,0.11631505652959198
12.738432,6.891997355999388,0.11643757960309264
12.740812000000002,6.870722213609217,0.11652459167034512
12.743216,6.855825460510633,0.1165533333604827
12.7456,6.837576132225273,0.11663884500923521
12.747980000000002,6.816393537633718,0.1167586147208178
12.750384,6.8009377060276925,0.11681587077246337
12.752772,6.788554910354723,0.11683062999055646
12.755152,6.778406532853647,0.11684657257206328
12.757556,6.772122587218545,0.11681926217402469
12.75994,6.767281663822421,0.1167953897539346
12.76232,6.76402353229213,0.11676795810615909
12.764724,6.763838436694897,0.11669903704611982
12.767112,6.776876650389662,0.11645615518699325
12.769492,6.790426720763626,0.11622570779978669
12.771888,6.810122863003701,0.11590974111041195
12.774276,6.828608300430278,0.11562158362109835
12.776656,6.852680731215522,0.11528057019730034
12.77906,6.879267119426383,0.11492552750430188
12.781448,6.908786773943437,0.11454019613100246
12.783828,6.9425901692070475,0.11409346752869928
12.786224,6.975974255590075,0.11366872361919166
12.788608,7.008007867532744,0.11327564680693201
12.790988000000002,7.033383550930106,0.11295198327342082
12.793392,7.061972039887382,0.11258029917097542
12.79578,7.092702399217937,0.1121776433131479
12.79816,7.120779031496016,0.1117975771103736
12.800564,7.14606216709476,0.11144534940484166
12.802952,7.16869157564103,0.11111258606396977
12.805328,7.1933230849337155,0.11075826845525694
12.807728,7.216371802360566,0.11040874183456562
12.810112,7.2381172671753005,0.11004986956491744
12.812492,7.258652027176535,0.10971443252194334
12.814896,7.269176283445687,0.10949821820943614
12.81728,7.283053114901613,0.10923207204423528
12.81966,7.298792277477098,0.10895289761752532
12.822064,7.311737943373247,0.10869811994994219
12.824452,7.322961047776698,0.10845436467760068
12.826832,7.33553462662051,0.10818363365295594
12.829236000000002,7.341450276919013,0.1079731775939805
12.83162,7.342570329791764,0.10780807604787582
12.834004,7.3431785259853175,0.10763022746082875
12.836404000000002,7.346208131805868,0.10741112269083736
12.838792000000002,7.358317075798726,0.10709325458301515
12.841172,7.371357185351361,0.10677028387424993
12.843568,7.380672632664882,0.10647626890526164
12.845956,7.389336453672346,0.10617668131678763
12.848336,7.399071209866448,0.10586343322580631
12.850740000000002,7.411879001993605,0.10551645966170092
12.853124,7.4237556285609845,0.10517898154837416
12.855508,7.435772024755224,0.10483579829913024
12.857904,7.445786320203046,0.10451303033733016
12.860288,7.4571510900912275,0.10416460346164871
12.862668,7.469447025539187,0.10380635270141153
12.865072,7.47988062986759,0.10346533900170904
12.86746,7.486729341583741,0.10314716715239065
12.869844,7.495719923673168,0.10280281495410046
12.87224,7.5017772394564,0.10248535880644893
12.874628,7.506484080799273,0.10219487841110063
12.877008,7.518919785874092,0.10183785231884612
12.879404,7.53307805244161,0.1014731834443259
12.881792,7.5489588805018215,0.10110207629255882
12.884176,7.561906442255839,0.10075906886383636
12.886572,7.5648435002777745,0.10051592374237697
12.88896,7.564987061620374,0.1002929579302507
12.89134,7.568715515575225,0.10004985055632529
12.893736,7.573095595836135,0.09981317692857589
12.896124,7.576125201656686,0.09960210195392763
12.898508,7.5765010804247614,0.0994045914976764
12.900912000000002,7.573943692886643,0.09923249158619392
12.903296,7.572177701281443,0.09906066401532318
12.905676,7.575067537475133,0.09885772124515652
12.908080000000002,7.576886438482184,0.0986678931735149
12.910468000000002,7.582849310608929,0.09843451523301604
12.912848,7.58573914680262,0.09823230965479823
12.915248000000002,7.587278508555951,0.09805465007998451
12.917632,7.587886704749504,0.09788361383260287
12.920012,7.592499102435893,0.09767578745662867
12.922408,7.599532909749277,0.09743171437690136
12.924796,7.6016313500100505,0.09723129524475926
12.927176,7.6029383943379045,0.09703046901472957
12.929572,7.601591711613286,0.09684104111921696
12.93196,7.600105259261806,0.09665749201326147
12.934356,7.604625109149575,0.09641925995956832
12.936752000000002,7.607934254223845,0.096198723251707
12.939140000000002,7.610452003365199,0.09597832927964756
12.94152,7.613761148439471,0.09575878989044068
12.943916000000002,7.618420767954099,0.09551454191278849
12.946304,7.62145037377465,0.09530677274867184
12.948688,7.627553015528255,0.09506887074032805
12.951084000000002,7.633655657281861,0.09483202071856002
12.953472,7.635893867169495,0.09462528796985542
12.955852,7.633988105937433,0.09445941233592273
12.958252000000002,7.631151179145592,0.09429987580288463
12.96064,7.627383086793973,0.09414521662330706
12.96302,7.630832001495104,0.09392037685468424
12.965424000000002,7.633070211382738,0.09371357803159763
12.967812000000002,7.632375154964175,0.09353025370607576
12.970192,7.62646519223928,0.09339936755824128
12.972584,7.620555229514385,0.09326819928244867
12.974972,7.619860173095823,0.09308526526442007
12.977364,7.621027447796817,0.09289110700086908
12.979768,7.624196823244229,0.09268006874170301
12.982156,7.6272264290647795,0.09247657925932733
12.984536000000002,7.6336086100721054,0.0922326543999463
12.986932,7.639990791079432,0.09198910997421678
12.98932,7.642508540220785,0.09177229070041915
12.991700000000002,7.645957454921917,0.09155087594397872
12.994104,7.651268700742605,0.09131818969182379
12.996488,7.653367141003377,0.0911196015027241
12.998868000000002,7.652532314957955,0.09094278568984576
13.001268,7.651837258539392,0.09075949088902956
13.003652,7.6587785180541585,0.09049060383461849
13.006032,7.664648842382287,0.09023388753433054
13.008436,7.673452433016613,0.08995474006144676
13.01082,7.674107851038409,0.08974834917020069
13.0132,7.675973973873704,0.08952458998431184
13.015604,7.677840096708998,0.08930048408577364
13.017992,7.685992061037263,0.08901595952103085
13.020372000000002,7.698567535738944,0.0886828696169958
13.022768,7.705369025626851,0.08842458628003039
13.025156,7.714452155514896,0.08814008651447323
13.027540000000002,7.723954594283521,0.08783931145360055
13.029936,7.728940974880114,0.0875562700664295
13.032324,7.734718751409627,0.08727627575561725
13.034704,7.743709333499055,0.08696679635975074
13.037108,7.760848088201009,0.08659367617158327
13.039496,7.775705202902827,0.08624762650055018
13.041876000000002,7.793542805739084,0.08584813424636334
13.044272,7.815664149321894,0.08540868964514609
13.04666,7.843000399211036,0.08492649527018652
13.049040000000002,7.873409685033233,0.0844223214109009
13.051436,7.9031201227211305,0.08395405699272519
13.053824,7.933110099662749,0.08347611269689019
13.056208000000002,7.965241946977644,0.08298188273198397
