Time,Force,Position
11.806036,2.186371603997644,0.0450316022787001
11.808424,2.1519184782858467,0.04499264022499227
11.810803999999996,2.1203986188802437,0.044933945242107226
11.813208,2.092603421713755,0.044879420881437114
11.815596,2.068812426040099,0.044791266189056024
11.817975999999998,2.0476751574189183,0.04472943707216095
11.82038,2.028260450290434,0.0446892276205849
11.822768,2.0073554990947304,0.044728055750613956
11.825148,1.988312879018583,0.044768992640693055
11.827552,1.9714121293157127,0.04477086292797712
11.82994,1.9545113796128426,0.04477256812719637
11.83232,1.9431976232686428,0.044780551269576474
11.834723999999998,1.931604327670722,0.044828408078756106
11.837108,1.9150756650201897,0.04491272039111292
11.839492,1.897848154235356,0.045106128461477574
11.841888,1.8796894778907443,0.045299329642460924
11.844276,1.8613910319192724,0.04551002794905436
11.846656,1.8423011900148822,0.04570770522894652
11.849052,1.8199985425505765,0.04598343616842764
11.85144,1.803562427698661,0.04621061558207636
11.85382,1.7940637806457742,0.04637954723376341
11.856212,1.7907112054589986,0.046463360791294865
11.8586,1.7860081558318637,0.0466142428116312
11.860979999999998,1.7783718398985338,0.04678639278120598
11.863384,1.7718064591518425,0.0469322262945021
11.865772,1.7685936535919267,0.04699387705736918
11.868151999999998,1.771387150271262,0.04699759728510737
11.870556,1.7752515821372354,0.04697952137580145
11.87294,1.7780450788165703,0.04698207539159695
11.87532,1.7845632377350187,0.0469894348486387
11.877724,1.7920125622132452,0.046997933484788236
11.880112,1.8003930522512501,0.04700721671489357
11.882492,1.8078423767294765,0.047015547239890036
11.884899999999998,1.8160830971406212,0.0470446834022408
11.887283999999998,1.8259538312458454,0.046962017779665355
11.889664,1.8348933997912913,0.046877559656688626
11.89206,1.841039471657402,0.046790815090112806
11.894448,1.8522606802029848,0.04664119827722249
11.896828,1.8717698309879558,0.04636003109629673
11.899231999999998,1.8851329099068157,0.046168351689242035
11.901619999999998,1.8927692258401458,0.04599620171966724
11.904,1.8950508658402831,0.045932470002526524
11.906396,1.9014764769601142,0.04580592473660705
11.90878,1.9097644191995022,0.045677571236109465
11.91116,1.913908390319196,0.045614042817843245
11.91356,1.911906289572779,0.045634907194139096
11.915944,1.9066913832664465,0.04571799870632334
11.918328,1.9036183473333912,0.04575910601491465
11.920724,1.900685081027196,0.045778940850220017
11.923112,1.8926766780415285,0.045862007207381685
11.925491999999998,1.8814554694959456,0.04601616981014553
11.927896,1.870653569830943,0.04609711415480451
11.930284,1.8598516701659407,0.04617880870942524
11.932664,1.8521228064339939,0.046220124134630065
11.93506,1.8421123027019093,0.046326357274562635
11.937448,1.8358264612089383,0.04643449508637048
11.939828,1.8331255123282204,0.04656728868819361
11.942228,1.8262805923278085,0.04676254499820171
11.944616,1.8142207660210645,0.04703686766766059
11.946996,1.8035114141546793,0.04725109444493778
11.9494,1.7965267245274068,0.047469561075952724
11.951788,1.7907527397136338,0.047646686812959756
11.954168,1.786049690086499,0.04779597519817672
11.956571999999998,1.7825573452728631,0.04790196275422788
11.958956,1.779716626765285,0.04805593484801085
11.961336,1.7868864119897916,0.04810280457646023
11.963739999999998,1.791402470161823,0.048126226658170845
11.966127999999998,1.7949873627740756,0.048150036381047895
11.968512,1.8005743561327456,0.04815370535990703
11.970907999999998,1.8112364861708878,0.048093946367907765
11.973295999999998,1.8293951625154998,0.04788738996029388
11.975676,1.8381949614340853,0.047825558498166346
11.978071999999996,1.8497882570320054,0.047765457670907153
11.98046,1.8605901566970078,0.04768451332624815
11.98284,1.8716715956157306,0.047558473916197955
11.985236,1.8798197682282582,0.04745233549417269
11.987624,1.8863851489749497,0.04730264495454355
11.990004,1.894952630468058,0.047130867166680544
11.992404,1.9033803423343059,0.046976109735344156
11.994788,1.9131113068126697,0.04690774528460147
11.997172,1.92470460241059,0.04684039999673978
11.999575999999998,1.938672085807265,0.04683345894687125
12.001963999999996,1.944444174763169,0.047085953716279424
12.004344,1.9486787978236109,0.047573514617877996
12.006743999999998,1.9536575949887276,0.04823119520675074
12.009131999999996,1.951464711071469,0.04928722460390796
12.011508,1.954484837602673,0.05064129834702767
12.013915999999998,1.961227730515122,0.0523468586994971
12.016299999999998,1.9735557209283712,0.054328468098016315
12.01868,1.9888150817899466,0.05655170061112538
12.021083999999998,2.002302763472713,0.05918876739909151
12.023471999999998,2.0311065071346435,0.06193171347672304
12.025852,2.065635117924235,0.06481337584135174
12.028247999999998,2.103746725468211,0.06793855991782811
12.030632,2.147303660886127,0.07127519269063647
12.033016,2.1977961682452025,0.07471392763191023
12.035411999999996,2.2501491108659653,0.07838930502818887
12.037796,2.3025001576288586,0.08231394767237084
12.040176,2.360855610773134,0.08633080798216877
12.042576,2.4233531391792336,0.0904254687529485
12.04496,2.485709002100604,0.09471767662427454
12.047344,2.546108090245931,0.09915224296696952
12.049744,2.6181930217877967,0.10335717740209281
12.052132,2.6978670474347486,0.10727329201377608
12.054512,2.78475808013445,0.11086067262412805
12.056908,2.873977974662531,0.11414435155599312
12.059296,2.959288111354265,0.11718805527541816
12.061676,3.0384540720377577,0.1199907060182908
12.06408,3.107099568167837,0.12264702406648784
12.066468,3.1660159956774225,0.12519433301925756
12.068848,3.222420361619262,0.12740350886718263
12.071244,3.2676526367016314,0.12952607540470074
12.073632,3.3012935120439497,0.13164800823311237
12.076012,3.3322825561916627,0.13350339519742127
12.078408,3.3563360283982155,0.13527352476119678
12.080792,3.3745248638502474,0.13692174588638922
12.083188,3.3913651207197892,0.13835935758166265
12.085584,3.404203071954367,0.1396657808236813
12.087972,3.409314055314867,0.14094562448408599
12.090356,3.4091194804282865,0.14207970065657757
12.092752,3.402268872854267,0.14317645778281732
12.09514,3.395000852257536,0.14407045219969492
12.09752,3.379307015652426,0.14504635086402226
12.099916,3.353417579717998,0.14623650925776957
12.1023,3.3178444011334496,0.14766225190265322
12.104684,3.2829700706832017,0.14898818803385822
12.107076,3.2466527179939777,0.15034713590387844
12.109464,3.214758875678168,0.15150735135637103
12.11186,3.1865896956014725,0.15257761324928829
12.114255999999996,3.160003307390612,0.153663592688346
12.116644,3.130343883246697,0.15490148641881665
12.119024,3.1038972646626974,0.15600680068971745
12.121427999999998,3.0785215812653366,0.15710939982785213
12.123811999999996,3.0539372938008937,0.15817717271539747
12.126192,3.0327055815232264,0.15908208019057674
12.128591999999998,3.009331998872282,0.160104677366721
12.130976,2.987448660288557,0.16100452769862078
12.133356,2.9725027895038614,0.16161745168811806
12.135759999999998,2.965565321704832,0.16189401680159676
12.138147999999996,2.9580687753983623,0.16224564166606045
12.140528,2.9576494665177817,0.16229977833443565
12.142931999999998,2.956950618383481,0.16239016926647887
12.145315999999998,2.957974331741876,0.1624335267280997
12.1477,2.9620710810333266,0.162338562411716
12.150095999999998,2.9738966940567244,0.16193912212411513
12.152483999999998,2.985582537453262,0.16156682851295848
12.154864,3.002063978275552,0.161013708560532
12.15726,3.0169154054037617,0.16059149877869205
12.159648,3.0345603292113066,0.16007971155089665
12.162028,3.058351324884962,0.15931012242386175
12.164427999999996,3.0898711842905646,0.15825560606186934
12.166816,3.1236254618680612,0.15719503037389257
12.1692,3.164037667990866,0.1558984766650869
12.171595999999996,3.2041703348599513,0.15466185088448542
12.173984,3.2440234624753157,0.15347446732847614
12.176364,3.2898828923299304,0.15206173431535117
12.17876,3.335183243677105,0.15074987062271467
12.181148,3.3794126598376404,0.14953913286591958
12.183543999999998,3.4172164648783445,0.1486223381710482
12.18594,3.457301909919187,0.14759861873161015
12.188323999999998,3.4961766501465292,0.14666804692631613
12.190704,3.5385437351875084,0.14559675210966294
12.193099999999998,3.580119424295569,0.14452814104153
12.195484,3.6207639478438516,0.14348058918678874
12.197879999999998,3.655961247660325,0.1426009575050772
12.200276,3.688365050797463,0.1418007918024957
12.202664,3.721048393188321,0.14099981279056406
12.205043999999996,3.751497317407286,0.1402059663503394
12.207448,3.7785011186408566,0.1394901947608886
12.209832,3.7996383872620383,0.13895952765054864
12.212211999999996,3.8143972665916306,0.1385917017152555
12.214616,3.823848691816274,0.13833705217041214
12.217,3.8294356851749436,0.13819582378901676
12.219376,3.830646389988442,0.13814270302739187
12.221784,3.829994763682384,0.13813711941039486
12.224168,3.8224056695772974,0.13834198308833434
12.226547999999998,3.812023078792876,0.13861897260556869
12.228943999999998,3.7960534946497844,0.13903949380785724
12.231327999999998,3.7834364856934686,0.13932906512439613
12.233708,3.770679707110293,0.1396295343674617
12.236112,3.752196165541586,0.14009201943636063
12.238499999999998,3.731430983972743,0.14063276872366517
12.24088,3.715601169456512,0.14102037477578921
12.243284,3.703496017179394,0.14131364770522378
12.245667999999998,3.690040390461917,0.14167796463230878
12.248048,3.680588965237273,0.14191927775937016
12.250443999999998,3.6657828640794374,0.1423445680942434
12.252831999999998,3.6536304899740757,0.1427169887215003
12.255212,3.641198576614994,0.14312146273221496
12.257616,3.6330504040024665,0.14337578809087154
12.259999999999998,3.6269043321363554,0.14357086781228134
12.26238,3.6269043321363545,0.14357086781228132
12.264775999999998,3.626532245084017,0.14353623654137257
12.26716,3.629233193964735,0.14340339983063974
12.269555999999998,3.6372888187786456,0.143088124150983
12.271952,3.6505593498988884,0.1426004214013708
12.27434,3.6635975635936537,0.1420578872398735
12.276719999999996,3.6814313747141716,0.1413833405683161
12.279124,3.697682393968853,0.1407349638988421
12.281508,3.7154236572907533,0.1400184845824973
12.283887999999996,3.7402421580385434,0.13908676529643052
12.286292,3.7634778669204967,0.13817391045604172
12.28868,3.782988913563337,0.1373672443848103
12.291059999999998,3.8001257724074224,0.13659484734211944
12.293464,3.8227570768115613,0.13563853979278256
12.295852,3.8388702222972513,0.13482884776120088
12.298232,3.8586154822234384,0.13386938024957667
12.300636,3.8767779502837887,0.13292659816282235
12.303024,3.8981532239040546,0.1318835209703758
12.305404,3.9153845264046265,0.13096885227800228
12.307807999999998,3.933686764091837,0.13002778709337565
12.310192,3.9518492321521874,0.12912588942198994
12.312576,3.9698719305856778,0.12823601070798887
12.314979999999998,3.988034398646028,0.1273374247912313
12.317363999999998,4.001261499653766,0.12657447425534948
12.319744,4.0089016073028345,0.12592283148072134
12.322139999999996,4.020266377191016,0.12519950337605623
12.324528,4.029117189653583,0.12451004302150802
12.326908,4.034755196556235,0.12391111485965069
12.329304,4.037180397898971,0.12340969247685518
12.331688,4.036672332935512,0.1229795735495444
12.334067999999998,4.0380265990916095,0.12251474898663064
12.336472,4.040591570061206,0.1220094133967037
12.33886,4.04394793696372,0.1215022415079604
12.34124,4.044510807186899,0.12105088603036125
12.343643999999998,4.053873476328664,0.1204169907876642
12.346031999999996,4.062165210283791,0.119815910696336
12.348412,4.072459044985333,0.11917281188453528
12.350804,4.079167987074623,0.11858325015564293
12.353192,4.085225302857855,0.11797765636019433
12.355572,4.091142849014227,0.11738955487419654
12.357964,4.08984338811785,0.11697240146372392
12.360352,4.093339524647225,0.11646930514989903
12.362731999999998,4.097487287482657,0.11597764157372221
12.365136,4.101495280691229,0.11549650502339916
12.367524,4.109088166512055,0.11496180562135147
12.369903999999998,4.112537081213186,0.11452646214970665
12.372308,4.1158462262874576,0.1141024283295958
12.374696,4.121948868041064,0.11362857700484051
12.377071999999998,4.125909639421392,0.11320604475837429
12.379479999999996,4.1269371444955265,0.11284120670219279
12.381868,4.125171152890325,0.11252357690279227
12.384248,4.1187021116579885,0.11235697877061764
12.386644,4.10808909930596,0.11229233065714173
12.389032,4.093564433259713,0.1123801671341123
12.391412,4.06996042904116,0.11267530037885551
12.393815999999998,4.048218755942165,0.11293183778650753
12.3962,4.025266378029671,0.11322477890245113
12.39858,4.0040365616098725,0.11349804169543026
12.400976,3.986531407429188,0.11370853686005507
12.403364,3.967024152502087,0.11396087673163817
12.405748,3.9536629694410963,0.1140710533191414
12.408151999999998,3.936018045633551,0.11428863543562816
12.410539999999996,3.9162312514527287,0.11456202544030866
12.412916,3.8963046876450464,0.11485014502412601
12.415316,3.8762383542105043,0.11515015922958374
12.4177,3.856172020775962,0.11545618862314454
12.42008,3.8364777743937575,0.11579918061795696
12.422484,3.8189253983848293,0.11608090759969443
12.424872,3.8045858279358167,0.1162804966764449
12.427252,3.793970919725918,0.11641802846104776
12.429655999999998,3.779584127448662,0.11670346288535571
12.432043999999998,3.766408039984906,0.11695427641518878
12.434424,3.754023348454067,0.11720902038189715
12.436819999999996,3.745270771363725,0.11733255402872822
12.439208,3.742384726885773,0.11732181371006291
12.441588,3.7344235457283483,0.11744294755383901
12.443984,3.7243204941976464,0.11762989832490221
12.446372,3.712866968226587,0.11787761326887593
12.448752,3.7020650685615846,0.11813034098787667
12.451148,3.6899126944562237,0.11844731007203281
12.453536,3.6737561188580283,0.11886408606851731
12.455915999999998,3.6560167513939974,0.11929353907464062
12.458312,3.6373462183701872,0.1197496989756969
12.4607,3.6217487212794333,0.12011756363665099
12.463092,3.6060114545618185,0.12050031631022176
12.465495999999998,3.5932074541504,0.12081371519326427
12.467883999999998,3.582685093739117,0.12104546207392824
12.470264,3.568018762208142,0.12139302079237277
12.472668,3.5518621866099465,0.12181739278371725
12.475056,3.536357237317809,0.12224564966367081
12.477435999999996,3.531002561384616,0.12240785832955092
12.479831999999998,3.528581151757619,0.1225012229853127
12.482219999999998,3.5283016125038977,0.12252954836507417
12.4846,3.52546089399632,0.12266757746861816
12.486995999999998,3.5186159739959084,0.12291058263457144
12.489383999999998,3.5094894139953587,0.12324819775576519
12.491764,3.503156350674145,0.12352709882480818
12.49416,3.499896323285986,0.12371467938928522
12.496544,3.493563259964772,0.12399212067538512
12.498924,3.488021592576476,0.12426889277328651
12.501327999999996,3.482991781867378,0.12457391119259034
12.503716,3.4794049933972557,0.12488395584022664
12.506096,3.4787514712333287,0.12511489381077798
12.508492,3.4767474746290428,0.12541029541399776
12.51088,3.477676744330952,0.1256250943214406
12.51326,3.4793974099657796,0.12583243835550417
12.515663999999996,3.476182708547995,0.12617375057358837
12.518048,3.4738991726899884,0.12649774725041749
12.520428,3.4757596079516757,0.12669110401574563
12.522824,3.4737556113473897,0.1269840779346906
12.525212,3.464953916570935,0.1274500637936503
12.527604,3.4589457184738155,0.12784634374760945
12.529999999999998,3.4568019522426687,0.12814299493391906
12.532387999999996,3.455868890825021,0.12839370166820532
12.534768,3.4558669949671517,0.1286261023005665
12.537171999999998,3.466155142095087,0.12854751168694203
12.539555999999996,3.4745809581034655,0.12850979427668732
12.541936,3.4815165300446247,0.12855239763345758
12.544339999999998,3.4895230371724226,0.12855825360093548
12.546727999999998,3.4998111843003583,0.12847667591634476
12.549108,3.5114498058686525,0.1283269343701477
12.551503999999998,3.5201551611307518,0.12825181733605528
12.553888,3.529651912325769,0.12817184708160909
12.556268,3.5372863324012305,0.12813439253564896
12.558671999999998,3.541056320610717,0.1281985932839294
12.561059999999998,3.54189304251401,0.12834181955015286
12.56344,3.5483167577759716,0.12835595304220565
12.565835999999996,3.559675840090545,0.12823567203870925
12.568224,3.568753282404982,0.1282040693179952
12.570604,3.5816951565853925,0.1280728824781807
12.573007999999998,3.599432628191554,0.1278229017455892
12.575395999999998,3.6155873079318797,0.12759630231154948
12.577776,3.6268066206195937,0.12750182836197646
12.580171999999996,3.6448236314794755,0.12724777210142532
12.582556,3.666565304578471,0.12691784223812327
12.58494,3.6818813665576355,0.12679160314869442
12.587343999999998,3.701993025962552,0.12656085312981757
12.589727999999996,3.7255970301811048,0.126214789396181
12.592108,3.7541364014522687,0.12576192504478823
12.594511999999998,3.782536003096573,0.125325914811167
12.596899999999998,3.814939806233711,0.12480513026226518
12.59928,3.8565627171700156,0.12405746303680643
12.601684,3.8975340018002615,0.12331192387684783
12.604067999999998,3.943300883856259,0.12247659354640969
12.606451999999996,3.9922805714721727,0.12155687644558458
12.608843999999998,4.042051655021005,0.12062275942513137
12.611231999999998,4.088098076330723,0.119762556282401
12.613612,4.132282166520885,0.11896222189714958
12.616008,4.177816731151405,0.11811708043185119
12.618396,4.22176850391609,0.11728711566682387
12.620791999999998,4.2639977151880775,0.11649250346718928
12.623188,4.304876452019706,0.11576146341158344
12.625571999999998,4.35003892959789,0.1149292343533896
12.627952,4.387752082697846,0.11423475143591483
12.630347999999998,4.42188034318555,0.11359243729584338
12.632735999999998,4.460711653300388,0.11281499553586319
12.635116,4.495026905243194,0.11210892370702319
12.637511999999996,4.522544459013833,0.11153130961322401
12.6399,4.543543853866025,0.11105984651690592
12.642295999999998,4.564962557598795,0.1105582768054892
12.644692,4.581445894278953,0.11015362283500865
12.64708,4.592062698346721,0.1098596295673638
12.649459999999998,4.604681603160906,0.1095338336325925
12.651864,4.61292421942992,0.1092529955866383
12.654252,4.619024965325655,0.1090206036999908
12.656631999999998,4.630759926408307,0.10865726590025214
12.659028,4.6499914337974255,0.10814522400832752
12.661416,4.6664294445072105,0.10767088470811031
12.663795999999998,4.679142792977882,0.10724400128966978
12.666192,4.694929177381609,0.1067673732421363
12.66858,4.712997201785473,0.10624547242480455
12.670959999999996,4.730693139137,0.10569637808913948
12.673364,4.747318141301888,0.10517789779286443
12.675752,4.769018280146248,0.10458043222881369
12.678127999999996,4.79099795824433,0.10396090494968735
12.680536,4.809625061155634,0.103419793239393
12.68292,4.831325199999994,0.10283162395252902
12.685299999999998,4.857029540337187,0.10218028648888695
12.687696,4.885527377353716,0.10149747278723888
12.690084,4.916167084743523,0.10078688569638865
12.692463999999998,4.950159367320104,0.10001220795686781
12.694859999999998,4.983360253963768,0.0992382549456646
12.697247999999998,5.0109741472487626,0.09852715675137758
12.699628,5.038588040533756,0.09781526721009012
12.702028,5.069554509005525,0.09704409154416611
12.704415999999998,5.094374905611185,0.09638062579953025
12.706796,5.111047129604316,0.09584806379429271
12.709196,5.129861223970724,0.09528059102030079
12.711579999999998,5.154821390203242,0.09462865188856594
12.713964,5.175777354942928,0.0940357314935677
12.716368,5.193660283749558,0.0934939900511856
12.718752,5.2075390110633535,0.09300131475251616
12.721132,5.217832845764897,0.09253464441182374
12.723536,5.224122478973608,0.09212271951304762
12.725924,5.233624917742232,0.09166194771939944
12.7283,5.246759470951353,0.09112827099753894
12.730708,5.258962858600696,0.09060783627474592
12.733092,5.270374850317121,0.09008881843460144
12.735471999999998,5.2842082516605435,0.08952624701883075
12.737876,5.294037451511132,0.08901427744870356
