Time,Force,Position
13.540684,0.210149267604982,0.0
13.543072,0.21373416021723507,0.0
13.545451999999996,0.21797067913554605,0.0
13.547847999999998,0.22206742842699678,0.0
13.550235999999998,0.22444161622575112,0.0
13.552619999999996,0.22374276809145005,0.0
13.555015999999998,0.22346322883772965,0.0
13.557403999999998,0.2233234592108694,0.0
13.5598,0.22360299846458984,0.0
13.562196,0.22416207697203067,0.0
13.564584,0.2248609251063317,0.0
13.566964,0.21769113988182562,0.0
13.56936,0.20623761391076537,0.0
13.571748,0.1917110520066497,0.0
13.574132,0.17532215898297746,0.0
13.576528,0.16293746745213888,0.0
13.578912,0.15055277592130029,0.0
13.581295999999998,0.13694441747551725,0.0
13.583692,0.12333605902973417,0.0
13.58608,0.11294050614386669,0.0
13.588463999999998,0.10175355732508111,0.0
13.59086,0.09365260654079664,0.0
13.593248,0.08676236057001092,0.0
13.595627999999998,0.07800978347966857,0.0
13.598028,0.07298186862843949,0.0
13.600416,0.06981628489676706,0.0
13.602799999999998,0.06809372340407062,0.0
13.605196,0.06543999635159586,0.0
13.607584,0.06236696041854048,0.0
13.609968,0.058222989298846554,0.0
13.612372,0.05421878780601285,0.0
13.614756,0.05421878780601285,0.0
13.61714,0.05514995336579117,0.0
13.61954,0.06036485967212361,0.0
13.621928,0.0666507011650946,0.0
13.624308,0.073216081911786,0.0
13.626708,0.07843098821811843,0.0
13.629092,0.08873399330536884,0.0
13.631472,0.10224980395253484,0.0
13.633868,0.11762794571925748,0.0
13.63626,0.13007282117978497,0.0
13.63864,0.1392919289789511,0.0
13.641036,0.14837126715125704,0.0
13.643424,0.1583817708833413,0.0
13.645803999999998,0.1666697131227291,0.0
13.6482,0.17081368424242302,0.0
13.650583999999998,0.17602859054875544,0.0
13.65298,0.18431653278814328,0.0
13.655376,0.19367541021416965,0.0
13.657764,0.20689871950616948,0.0
13.660144,0.21984248954444888,0.0
13.662547999999996,0.23064438920945124,0.0
13.664935999999996,0.24200536738189443,0.0
13.667316,0.24936214406150395,0.0
13.669712,0.2573705470471714,0.0
13.6721,0.2640284755924798,0.0
13.67448,0.26989500820487017,0.0
13.676876,0.2720368785781473,0.0
13.679264,0.27068640413778833,0.0
13.681648,0.26747359857787273,0.0
13.68404,0.2710584911901258,0.0
13.686428,0.278927124548933,0.0
13.688807999999998,0.28586459234796185,0.0
13.691212,0.29079995940057385,0.0
13.6936,0.29466439126654737,0.0
13.69598,0.29866859275938107,0.0
13.698384,0.3020211679461569,0.0
13.700772,0.3020211679461569,0.0
13.703152,0.2980169664533232,0.0
13.705551999999996,0.2910794986542943,0.0
13.707936,0.28549250529562437,0.0
13.71032,0.2821871519370917,0.0
13.712716,0.278182950444258,0.0
13.715104,0.27711201525761947,0.0
13.717484,0.27431851857828454,0.0
13.71988,0.27166479152580975,0.0
13.722268,0.2742259707796674,0.0
13.724652,0.2806515818994986,0.0
13.727048,0.28549440115349367,0.0
13.729436,0.2923393211539055,0.0
13.731832,0.29345747816878714,0.0
13.734227999999998,0.2902918944371147,0.0
13.736619999999998,0.28912841145185914,0.0
13.738996,0.2929002955192156,0.0
13.7414,0.2994656762659069,0.0
13.743788,0.3111061936920705,0.0
13.746167999999996,0.31953390555831857,0.0
13.748572,0.32623905593187014,0.0
13.750956,0.3373677166788361,0.0
13.753335999999996,0.3475652118660237,0.0
13.75574,0.3584143333592692,0.0
13.758128,0.36805275003901594,0.0
13.760507999999998,0.37582883559920605,0.0
13.762904,0.38225444671903724,0.0
13.765292,0.38961122339864673,0.0
13.767671999999996,0.39724753933197676,0.0
13.770067999999998,0.3993894097052537,0.0
13.772455999999998,0.39403473377206116,0.0
13.774832,0.39054238895842514,0.0
13.777231999999998,0.38271908156999185,0.0
13.779616,0.3778271446298845,0.0
13.782,0.3801956448550311,0.0
13.784404,0.38647200705865586,0.0
13.786787999999998,0.4015915982933708,0.0
13.789172,0.4218297563200627,0.009093969641189366
13.791572,0.4486767252059505,0.017883761112827412
13.793959999999998,0.4840420578988342,0.026660317306208846
13.79634,0.5299278551451307,0.035291933205405364
13.798735999999998,0.5812117584371245,0.04404772160321708
13.801123999999998,0.6426893652005674,0.05275832673959273
13.803504,0.7097048476365678,0.06156370364935627
13.805899999999998,0.783840997610962,0.0705105128248238
13.808287999999996,0.8719427351241618,0.07915761269620371
13.810668,0.9730788946163887,0.0875177846143544
13.813067999999998,1.0828259657142285,0.0958760881344596
13.815455999999998,1.2009044091639611,0.10423275592000003
13.817836,1.3315054179135228,0.11245380960270174
13.820232,1.4799836678961071,0.12040574744554362
13.82262,1.635490037618468,0.12840487345438167
13.825015999999998,1.8041252729763422,0.13624946032508423
13.827412,1.9836096298274624,0.143840779351094
13.8298,2.1631431043646945,0.15131296343873046
13.832179999999996,2.338256860244251,0.15870588202548944
13.834575999999998,2.499918781122069,0.1660582498282488
13.836959999999998,2.65278469479704,0.164289400638364
13.83934,2.7927559561198434,0.1629392102026268
13.841735999999996,2.929608855539218,0.16160873052902033
13.844124,3.0675799119734743,0.16031795239251148
13.846519999999998,3.2062044905716576,0.1587975799337988
13.848916,3.3419449205497584,0.15719006060195206
13.851304,3.470424913362605,0.1554753692309479
13.853683999999998,3.598349619383749,0.15341821468628125
13.856088,3.7152420041722825,0.15165406137885742
13.858476,3.8172376358622326,0.1502382231652518
13.860855999999998,3.9102030470659894,0.1488603539362755
13.863252,3.997723130395805,0.14745608742305258
13.86564,4.078959268090519,0.14615347994130037
13.868019999999998,4.149767489030438,0.1451051324331237
13.870416,4.218715274708669,0.1439375222374194
13.872804,4.279796322885962,0.142861984539009
13.875183999999996,4.327376418375404,0.14205154243524162
13.877588,4.374212339760172,0.14122794540155903
13.879972,4.4224912833839145,0.1404248179280216
13.882351999999996,4.472677884097588,0.13969966528444097
13.884752,4.532081696752559,0.13893495919834362
13.887135999999998,4.601868100191951,0.1379573267606574
13.889519999999996,4.670118933593751,0.13694449460624755
13.891915999999998,4.726359058374918,0.13606459801316034
13.894303999999998,4.773102431961068,0.13528350108532797
13.896684,4.8098825236433775,0.13468384028950087
13.899088,4.847314241631745,0.13409185925662287
13.901476,4.877202191485399,0.13377294353593147
13.903855999999998,4.904389192458335,0.1335489884379092
13.906252,4.936883647536221,0.13324285778027609
13.908635999999998,4.975384404853357,0.13280991512854634
13.91102,5.009928182505902,0.13240976796252757
13.913415999999998,5.036650548627884,0.132114131816521
13.915799999999996,5.0594159350852745,0.13184874452876774
13.918195999999998,5.075663162624218,0.13170207635631584
13.920596,5.087347110162886,0.13168599759278848
13.922984,5.0997752318062295,0.1317213104768347
13.925363999999998,5.107080994941857,0.13193129400908812
13.92776,5.11010301733093,0.13224872664673848
13.930148,5.112473413413947,0.13256089940188467
13.932531999999998,5.104927749421365,0.13296955622397572
13.934928,5.086627407592023,0.1335356046052735
13.937312,5.063671237963789,0.13418414988681132
13.939691999999996,5.045882752813647,0.13476901220360157
13.942092,5.029909376954816,0.13538274683738133
13.94448,5.019103685574075,0.13593381790323678
13.946859999999996,5.0090893901262525,0.13647622687847763
13.949264,4.996049280573618,0.13704060144006916
13.951652,4.987479903222641,0.13742505457997128
13.954031999999998,4.973370754341237,0.1378505787108243
13.956428,4.953162755421964,0.13835127769289857
13.958816,4.931464512435473,0.13891736100246443
13.961199999999998,4.9162844283674305,0.13936945007014062
13.963596,4.901755970605445,0.13982852890471495
13.965984,4.8897886920973175,0.14020060341097465
13.968363999999998,4.881593297656547,0.14044699814163653
13.97076,4.875866534671018,0.14055814893968038
13.973147999999998,4.868976288700232,0.14065048882988482
13.975544,4.861853725303968,0.1407070237615312
13.97794,4.852356974108951,0.14078455447999563
13.980328,4.845374180339548,0.14083240192548657
13.982712,4.841696739928678,0.14084374907268002
13.985108,4.8408127961971426,0.14080132355248293
13.987496,4.83806652134605,0.1407948841927981
13.989876,4.834948159442621,0.14076174532807428
13.992276,4.829735148994157,0.1407264049330546
13.994664,4.822287720373801,0.14069992064920936
13.997044,4.821265902873275,0.14049887790704954
13.999447999999996,4.814749639812696,0.14045418238309607
14.001835999999996,4.811398960483789,0.140382496844319
14.00422,4.810282699326777,0.14030187409512446
14.006615999999998,4.813729718170039,0.14008271623809393
14.009003999999996,4.81294021809499,0.13991962129959845
14.011384,4.811778630967605,0.13972936417084508
14.01378,4.810617043840217,0.13953986802407303
14.016168,4.806941499287216,0.13938087411589462
14.018548,4.806431538465889,0.13919880764189682
14.020944,4.807783908764117,0.13898237759607407
14.023332,4.812721171674598,0.1387097894722192
14.025712,4.825806607197606,0.1382527901417342
14.028112,4.840382286787835,0.13773929651764671
14.0305,4.8568675193258635,0.13713733113899462
14.03288,4.876984866304387,0.13643167551833446
14.035276,4.898452687723269,0.13568218170054397
14.037664,4.925507502500823,0.1348495761722343
14.040048,4.952143008397796,0.13404609145345295
14.042444,4.977567809481268,0.13327414020858164
14.044832,5.001921675378104,0.13253995242708155
14.047211999999998,5.030419512394634,0.13170839182314537
14.049608,5.058265723105104,0.13087387274095202
14.051996,5.081875414897263,0.13008418649184977
14.054379999999998,5.104134632249065,0.12934957527453272
14.056776,5.127836871839842,0.12861206698058522
14.05916,5.154192838483094,0.12784326338934007
14.061556,5.179477869939707,0.12710442304455127
14.063955999999996,5.205274758075517,0.12638301206902883
14.066343999999996,5.219757889867128,0.12584998263125835
14.068724,5.2343807912856,0.1253079448128924
14.07112,5.246070426397876,0.12482284053486332
14.073508,5.250403284830543,0.12450655596481998
14.075888,5.251243798449574,0.12428492328450064
14.078284,5.248452197628107,0.12416807757332003
14.080672,5.240678007925787,0.12420027721825053
14.083052,5.229830782290411,0.12429545884346718
14.085452,5.210043988109589,0.12455962983165357
14.08784,5.191467898742265,0.12478924555436649
14.09022,5.173962744561581,0.12499657085319416
14.09262,5.155107115940537,0.12524669115638637
14.095004,5.135180552132854,0.12551889043481051
14.097388,5.115253988325174,0.1257901522009703
14.099784,5.098772547502884,0.12602585688704207
14.102168,5.079777149254981,0.12628411781207183
14.104568,5.060269894327879,0.12652666441902183
14.106963999999998,5.037969142721443,0.1268099451364895
14.109351999999998,5.011524419995312,0.12718704669078093
14.111732,4.985731323575239,0.12756875998813702
14.114127999999996,4.96817894756631,0.12783646995820408
14.116516,4.951278197863441,0.12810836434693285
14.1189,4.93423767853371,0.12839304255814804
14.121299999999998,4.918407864017478,0.12864510058034706
14.123687999999998,4.9044403806208035,0.12886984157409592
14.126068,4.894616868343823,0.12900289831809728
14.128467999999998,4.886143830507201,0.12909059994799563
14.130855999999998,4.880324519723055,0.1291437089113175
14.133236,4.879720115245239,0.1290788377918549
14.135635999999998,4.876414761886706,0.1291086276577868
14.138023999999998,4.873481495580511,0.1291659937844283
14.140408,4.870128920393736,0.1292557644633743
14.142803999999998,4.866357036326379,0.12937781602749843
14.145191999999998,4.859232577072247,0.1295921267494345
14.147575999999995,4.847964146698422,0.1299055173855371
14.149971999999998,4.83785919930985,0.13024344228235993
14.152355999999996,4.825332842294283,0.13066269704168346
14.15474,4.812107637144413,0.13114139646556255
14.157135999999998,4.804748964606935,0.13149985905694536
14.15952,4.795527960949899,0.1318928247730101
14.161904,4.787517662106363,0.1322415411962116
14.164299999999995,4.77750526251641,0.13263496659175747
14.166684,4.768424028486235,0.1330134208824455
14.169068,4.761577212627953,0.13338556186569528
14.171464,4.757663663075866,0.1336942790022193
14.173852,4.752120099829701,0.1340721850344785
14.176247999999998,4.744294896583399,0.13451902622624284
14.178643999999998,4.735258988523597,0.1350040272523997
14.181027999999998,4.725803771583215,0.13551907169719
14.183412,4.722634396135804,0.13587939677435318
14.185807999999998,4.721606891061671,0.13618426927020352
14.188195999999998,4.721650321174175,0.13646173375741544
14.190576,4.721553981659818,0.13675052459495113
14.192971999999996,4.72946604513113,0.13686287318827253
14.195359999999996,4.744315576401473,0.13682656046254021
14.19774,4.765311179537924,0.1366525682828413
14.200143999999998,4.796829143085658,0.13628491218930117
14.202531999999998,4.832351308126225,0.13583007037134304
14.204912,4.865591833166654,0.1354407322872588
14.207311999999998,4.901346315632699,0.13502283561748435
14.209695999999996,4.933608453285107,0.1347091103097056
14.21208,4.969595253176628,0.13433332061323613
14.214475999999998,5.009306715307264,0.13389994202411917
14.216863999999998,5.051160047811176,0.13342297265345884
14.219244,5.091662905874729,0.13299991739433184
14.221643999999998,5.132445303192003,0.13255658938703402
14.224028,5.1803049379351656,0.13196963347924048
14.226412,5.229095738238106,0.13136537251363234
14.228807999999995,5.279609100033744,0.13074749845428474
14.231196,5.329051526642742,0.1301732376123087
14.233591999999998,5.380775593251878,0.12955550754734618
14.235988,5.433850134301373,0.12890014356704277
14.238376,5.493210516843839,0.12812495935988047
14.240759999999998,5.549637633080111,0.1274219797765345
14.243156,5.604481957450545,0.12674476303665788
14.245544,5.648664151782837,0.12624444293225584
14.247927999999998,5.685397021636904,0.12586244364861499
14.250324,5.719895473319076,0.1254865046626578
14.252707999999998,5.7598883705613,0.1250001321749629
14.255088,5.800580115937826,0.12447458204617799
14.257492,5.841319083142594,0.12389579821515606
14.259875999999998,5.876471056988693,0.12339078253246036
14.262256,5.910319778222676,0.12288531483798494
14.26466,5.941002915724987,0.12240002192044251
14.267048,5.968800008749345,0.12190989799137698
14.269427999999998,5.995945475467646,0.12141549883579537
14.271828,6.020576984760332,0.1209500150157798
14.274216,6.047118047000818,0.1204178028839725
14.276595999999998,6.067700028830297,0.11993040022334232
14.278992,6.08711852767452,0.11942954575770993
14.281375999999998,6.10323167316021,0.11895472562459682
14.283759999999996,6.113897594914091,0.11853656703891043
14.286155999999998,6.119535601816743,0.11815615506355129
14.288539999999998,6.124289664987859,0.11774140061042981
14.290924,6.123736274054026,0.11737248584640322
14.293323999999998,6.132821299799939,0.11683502804149405
14.295711999999998,6.141022381814318,0.11626024019301426
14.298092,6.147128815283663,0.11567426430954203
14.300487999999998,6.147276168342,0.11513142097727003
14.302875999999998,6.144397707295525,0.11458875634877096
14.305272,6.145151360689546,0.11396996509896776
14.307668,6.152889703710839,0.11321358634477975
14.310056,6.155320592627182,0.11249838234043774
14.31244,6.156448228931409,0.11176963339984969
14.314836,6.1592058789297175,0.1109897013772181
14.317224,6.16107958519649,0.11017151147295912
14.319603999999998,6.157925376612034,0.10937630127596679
14.322,6.150255109855545,0.10861907383008489
14.324388,6.14821905828597,0.10775802791236391
14.326767999999998,6.139664847797945,0.10695558495863657
14.329176,6.128177371003726,0.10618549925690474
14.33156,6.125397145329476,0.10527303273473712
14.333944,6.119543883722171,0.10440055427656142
14.33634,6.113271313234285,0.10355341240334247
14.338728,6.1127255057319285,0.10264572451727855
14.341107999999998,6.107244331176961,0.10180176164256621
14.343504,6.1042771140476075,0.1009493957707091
14.345892,6.10847968214276,0.10005345499744986
14.348271999999998,6.114776898782946,0.09917378220277344
14.350668,6.124099929527945,0.09830440600846038
14.35306,6.130302702511645,0.09752518695900667
14.355435999999996,6.130871260308431,0.09684052118642639
14.357844,6.1387493729565845,0.09610662081110302
14.360228,6.147651198963133,0.09540368569386623
14.362612,6.157157429447497,0.09475669497879856
14.365008,6.171272265902508,0.09412495830421484
14.367396,6.190926873887949,0.09349841746895778
14.369775999999998,6.219334058963729,0.0928412913234694
14.372176,6.250347749263743,0.09222906228035427
14.37456,6.2918365781467935,0.09157761468630767
14.376943999999998,6.340355422627491,0.09090210864632699
14.379348,6.384123995652811,0.09035985514147339
14.381732,6.4349225842757765,0.08979512369779065
14.384111999999998,6.486093259951078,0.08925707380121779
14.386512,6.535354382678582,0.08878089097590205
14.388896,6.583637118018064,0.08835453404428759
14.391279999999998,6.629870530782885,0.08799357449916355
14.393676,6.670469728360794,0.08771753488879906
14.396064,6.713862422618037,0.08743003858087534
14.398443999999998,6.756184181688642,0.087158938595209
14.40084,6.797295235945748,0.08690570233157519
14.403228,6.840780478001609,0.08665625064796602
14.405624,6.877840108937638,0.0864844267167989
14.40802,6.914620200619947,0.0863264916556673
14.410408,6.951959370809697,0.08614275220093034
14.412792,6.987575979506751,0.08596752152527709
14.415195999999998,7.0193281563378305,0.08582124733069445
14.417579999999996,7.042280534250325,0.08574529544536422
14.41996,7.057224509177152,0.08573840042516748
14.422356,7.065650325185531,0.08576835043134812
14.424744,7.070351478954795,0.08581887124862257
14.427124,7.075611711231502,0.08584284240782153
14.429524,7.073003310149402,0.08592693041875661
14.431908,7.0674616427611054,0.08603301072413852
14.434292,7.06233928425339,0.08611905472562321
14.436688,7.059498565745812,0.08617527721258172
14.439072,7.057868552051733,0.08621329437613647
14.441451999999998,7.05852017835779,0.08622135859618699
14.443859999999995,7.053165502424599,0.08627927757914575
14.446244,7.047671056864546,0.08634343278155333
14.448628,7.045389416864409,0.0863729803988465
14.451024,7.046041043170466,0.08638098507808313
14.453412,7.052559202088915,0.08634644189380904
14.455792,7.061870857686699,0.08629728761301914
14.458188,7.072345996269738,0.08627100864334662
14.460576,7.078537394106222,0.08628974251720803
14.462955999999998,7.084868561569567,0.08630197139316859
14.465352,7.089197628286495,0.08633033836420999
14.46774,7.099672766869534,0.08630260570959236
14.470136,7.110147905452573,0.08627465225923425
14.472531999999998,7.117689777729416,0.08626833662978668
14.474919999999996,7.1220188444463455,0.08629666156064897
14.4773,7.130352112656107,0.08629138256953536
14.479696,7.14348097829162,0.08625399787299301
14.482084,7.156470074300273,0.0862235503537891
14.484464,7.166246364749011,0.08622773582914574
14.48686,7.177512899264967,0.0862012539289565
14.489248,7.184915001914949,0.0862014879578252
14.491632,7.193248270124712,0.0861963427237239
14.494028,7.201721307961332,0.08618489833994998
14.496416,7.209263180238176,0.08617882766551975
14.498796,7.212288994342989,0.0861912764857369
14.501192,7.208936419156212,0.08623176651884774
14.50358,7.202558029864625,0.08625943395527882
14.505964,7.192082891281586,0.08628571292495135
14.508367999999995,7.183889392698686,0.08628326303947298
14.510756,7.177837764489062,0.08625809980762361
14.513136,7.177001042585769,0.08618265827850384
14.515532,7.170577327323808,0.086136568034772
14.51792,7.1632224465020675,0.08609535773404571
14.520304,7.15987176717316,0.0860214776668324
14.5227,7.161224137471389,0.08588286853087894
14.525088,7.16113348553064,0.08573475455938225
14.527468,7.160950285791276,0.08555420467249829
14.529864,7.159463833439794,0.08535769680415198
14.532252,7.163891135528947,0.08508118157546539
14.534636,7.163383070565488,0.08484044803876271
14.537032,7.16315454485575,0.08458580215396816
14.53942,7.167489299146285,0.08427552150257217
14.5418,7.169170326384346,0.08397247521865253
14.5442,7.166335295450376,0.08368495845149997
14.546588,7.164850738956766,0.08337358307429604
14.548983999999995,7.167649923209709,0.08301814200374064
14.551379999999998,7.170169568208929,0.08267506598643919
