Time,Force,Position
13.684911999999995,0.6054878447354881,0.013528627355950932
13.687299999999995,0.5332290181251167,0.011232820125935888
13.68968,0.46883882487355244,0.008972317583900088
13.692075999999997,0.40924422904773994,0.0066942743444206405
13.69446,0.35695918807329374,0.004467474757759013
13.696839999999998,0.3124030108307946,0.002225613938115944
13.699243999999997,0.2745047621336039,0.0
13.701628,0.2420537371682229,0.0
13.704012,0.21826274149456715,0.0
13.706411999999997,0.1974050121271066,0.0
13.708799999999997,0.1799924057450389,0.0
13.711184,0.16337119529588937,0.0
13.713579999999997,0.15247674783226994,0.0
13.715967999999997,0.14316509223448673,0.0
13.718348,0.13278250145006507,0.0
13.720751999999996,0.1269159688376747,0.0
13.723139999999995,0.12118920585214457,0.0
13.72552,0.12389015473286245,0.0
13.727923999999998,0.12165573656096833,0.0
13.730307999999996,0.12328575025504769,0.0
13.732691999999997,0.1267780950686837,0.0
13.735087999999998,0.13054997913604013,0.0
13.737475999999996,0.12975858320312203,0.0
13.739856,0.13404232394967616,0.0
13.742251999999995,0.13818629506937005,0.0
13.744639999999997,0.14097979174870504,0.0
13.74702,0.14177118768162314,0.0
13.749419999999995,0.14284212286826165,0.0
13.751804,0.14111956137556522,0.0
13.754184,0.1393969998828688,0.0
13.756587999999995,0.14167863988300608,0.0
13.758975999999995,0.14288934469650483,0.0
13.761356,0.1414463224575288,0.0
13.763751999999997,0.13641840760629972,0.0
13.76614,0.13697748611374058,0.0
13.76852,0.1326011975685694,0.0
13.770923999999996,0.13194957126251147,0.0
13.773311999999995,0.12980770088923443,0.0
13.775692,0.13139049275507064,0.0
13.778095999999998,0.1308314142476298,0.0
13.780479999999995,0.1314830405536877,0.0
13.782864,0.13171535797916498,0.0
13.785259999999996,0.12915417872530727,0.0
13.787647999999995,0.12015181817506933,0.0
13.790028,0.11128922725169159,0.0
13.792431999999998,0.1047238465050002,0.0
13.794819999999998,0.09708753057167029,0.0
13.797199999999997,0.08822493964829253,0.0
13.799604,0.08282304188685673,0.0
13.801987999999998,0.07728137449856072,0.0
13.804367999999997,0.06827901394832275,0.0
13.806776,0.06127875414450166,0.0
13.80916,0.0561408254602372,0.0
13.811543999999998,0.05553452512455321,0.0
13.81394,0.049465430880510426,0.0
13.816323999999998,0.04646937256952302,0.0
13.818703999999997,0.041610983138978985,0.0
13.821099999999998,0.03596119777551683,0.0
13.823487999999998,0.029380246852276352,0.0
13.825871999999997,0.022939065555896095,0.0
13.828267999999998,0.015426949072877304,0.0
13.830655999999998,0.008194371843578931,0.0
13.833036,0.0049659961071142605,0.0
13.835431999999996,0.007542745537521029,0.0
13.837819999999995,0.007542745537521029,0.0
13.8402,0.006456240174333421,0.0
13.842595999999997,0.006440669997784344,0.0
13.84498,0.006440669997784344,0.0
13.847359999999998,0.004842307955399046,0.0
13.849756,0.004314881099652278,0.0
13.852144,0.004314881099652278,0.0
13.854523999999998,0.004314881099652278,0.0
13.856939999999998,0.004314881099652278,0.0
13.859327999999998,0.00257674943040677,0.0
13.861707999999997,0.00257674943040677,0.0
13.864112,0.00257674943040677,0.0
13.866499999999998,0.007708990541063494,0.0
13.868879999999995,0.0190779554585788,0.0
13.871275999999998,0.03598479604865165,0.0
13.873663999999998,0.06215417455039529,0.0
13.876043999999997,0.10103121394920263,0.0
13.878439999999998,0.14619030312524245,0.011143272896834018
13.880827999999998,0.2022872698774064,0.02185660482380141
13.883208,0.2672572214544853,0.03231025958638255
13.885611999999998,0.3522599589565434,0.041951197728039485
13.887999999999998,0.4488522003407833,0.05150602204336984
13.890379999999997,0.5608983774731788,0.06073044099862948
13.892779999999998,0.6816007921815611,0.07010876541739952
13.895167999999998,0.8148238763319037,0.07939871058906087
13.897547999999995,0.962849269924344,0.08846893635408315
13.899952,1.1243264985185228,0.09745166089754125
13.90234,1.2992555621144404,0.10636034169723485
13.904719999999998,1.4891267047793157,0.11511189316038474
13.90712,1.6892840987142572,0.12387390799431611
13.909508,1.9025684624268429,0.13249339620971964
13.911887999999998,2.1246035073719023,0.14108861479983467
13.914284,2.351235379826799,0.14957360613599702
13.916667999999998,2.5768435389233,0.15806269401978454
13.919047999999997,2.8038966161166465,0.16646121922611318
13.921452,3.023874351741973,0.1748977642176521
13.923839999999998,3.2338907013213283,0.18332516389473671
13.926219999999995,3.4437238511613195,0.1804891283507787
13.928615999999998,3.644201915291023,0.1780625124732295
13.931003999999998,3.835092576284961,0.17585313931501736
13.933383999999997,4.00624556078419,0.17453249371021054
13.935788,4.167531602893933,0.17326632860832605
13.938176,4.313223939628661,0.1723416933508295
13.940555999999996,4.454915866586294,0.1711584344577871
13.942951999999998,4.586740851154441,0.17001322500871602
13.945339999999998,4.702413051840131,0.16914041800889673
13.947719999999997,4.8063559790167805,0.16832517520686854
13.950115999999998,4.894844970445272,0.16763558560794256
13.952503999999998,4.968112343551086,0.16712484382756895
13.9549,5.032955796506393,0.16656257785223527
13.957296,5.088257172296307,0.16607301130502183
13.95968,5.137601363533081,0.16554871221072465
13.962063999999998,5.17786811245542,0.16513607832712338
13.96446,5.215715347608632,0.16466167047940342
13.966848,5.249093746418055,0.16424165212794636
13.969227999999998,5.281867740749662,0.16376660221997072
13.971632,5.310125676909237,0.16338047127042196
13.97402,5.331585914896644,0.1631657344229671
13.976399999999998,5.352487074376609,0.16299470571083016
13.978796,5.373341012028333,0.162880179271761
13.981179999999998,5.401224965277701,0.16263699781060031
13.983563999999998,5.427990761512188,0.1624780152076817
13.98596,5.458014689276964,0.16232392616556543
13.988343999999998,5.48421951114614,0.16235704041700907
13.990727999999995,5.508886867119854,0.16250267864110293
13.993132,5.538814455370273,0.1626007049064289
13.99552,5.5721399447778435,0.1626960029731031
13.997899999999998,5.614450328701233,0.16267259477781015
14.0003,5.662812340834248,0.16259877506471498
14.002684,5.717086211550025,0.16249596316304302
14.005063999999996,5.76968284674348,0.16251185695999337
14.007468,5.827399944586783,0.16251063909425306
14.009856,5.887583778027456,0.1625224209698206
14.012235999999998,5.94981503818492,0.1625829815370284
14.01464,6.014652803566616,0.1626544913003035
14.017028,6.081165908612767,0.1627488719748073
14.019408,6.15713043888356,0.16266933995182584
14.021804,6.241195919938638,0.16246402834862958
14.024192,6.333921430285441,0.16211402887995022
14.026571999999998,6.429859746192161,0.16169982559675045
14.028968,6.524215270233044,0.1613153869420778
14.031356,6.624484548714559,0.16078872311977652
14.033735999999998,6.725639666785479,0.1601819416025657
14.036131999999998,6.830381573326522,0.15940887984822422
14.038519999999998,6.93628885871069,0.15852896003717298
14.040903999999998,7.041499191818425,0.1575882180408457
14.043308,7.143079306343534,0.15664126757067204
14.045692,7.238747562285878,0.1557432012401191
14.048075999999998,7.326129771846705,0.15489445942836058
14.050472,7.403503373533315,0.15412287581755943
14.052855999999998,7.481670267010713,0.15323838034398946
14.055235999999995,7.553273675599289,0.1523983057446922
14.057636,7.62632200228471,0.15145912962226746
14.060019999999998,7.696299188894946,0.1504780841137764
14.062416,7.7609235954298565,0.14949982308274812
14.064812,7.821917783382141,0.1484998661891286
14.0672,7.873927076818605,0.1475888520795325
14.069584,7.917370784619831,0.1467404883720309
14.07198,7.949175870852761,0.14600568770970615
14.074368,7.9745100199954875,0.1453224052051026
14.076747999999998,7.995515102421284,0.14464991513049144
14.079144,8.010700874062934,0.14403346910047854
14.081532,8.022441522719193,0.14345431468265343
14.083911999999998,8.029386573949699,0.14294277154062965
14.086308,8.037682099620564,0.14240465721188195
14.088696,8.045605538239093,0.1418558729354258
14.091092,8.05231827204412,0.14133289250549624
14.093487999999995,8.057587983610173,0.14081204209358755
14.095872,8.069003767042336,0.14020190950666392
14.098252,8.084935608646532,0.13954597462747392
14.100655999999995,8.094441839130894,0.13899298515095865
14.103043999999995,8.100363177003004,0.13847526801162066
14.105424,8.104142644501838,0.13799669096440825
14.107816,8.108433968679869,0.13753029823309224
14.110204,8.112305983977318,0.1370831026650268
14.112583999999998,8.117760791140604,0.13662939569900204
14.11498,8.127452117222203,0.13614622917967495
14.117363999999998,8.141519731848971,0.13562824694113268
14.119743999999995,8.154469189460858,0.1351585858657117
14.122139999999998,8.169141208565442,0.13467489551359307
14.124523999999996,8.184185314722363,0.1342062861575526
14.126904,8.195597306438788,0.13380586562016591
14.12932,8.203796492595298,0.1334544373453889
14.131704,8.212367765804146,0.1331191929104167
14.134099999999997,8.21423388863944,0.1328971420486164
14.136491999999995,8.212188357780517,0.13275781451734947
14.138879999999997,8.207861186921459,0.13265785341301217
14.14126,8.204045872741599,0.1325674113182857
14.143663999999998,8.197529609681018,0.13253573069152028
14.146051999999996,8.184867274754328,0.13258920022919982
14.148432,8.174067270947196,0.13262399178287101
14.150827999999995,8.166572620498595,0.13263842438890505
14.153212,8.151581423743522,0.13276968696618474
14.155592,8.129373219935704,0.13300584106970184
14.157995999999995,8.106885476874163,0.1332559501955026
14.160383999999995,8.083326798625984,0.13352153284354373
14.162764,8.054041357392276,0.13385415837393033
14.165167999999998,8.020611945038874,0.13424439726124615
14.167551999999995,7.993468374178443,0.13454105426582644
14.169932,7.964974328877652,0.1348679930694179
14.172327999999997,7.938063075442698,0.1351880683807672
14.174715999999997,7.9130141531273,0.13549125605587145
14.177096,7.894623159357211,0.13571573283620597
14.179499999999996,7.876232165587123,0.13594020961654046
14.181887999999995,7.859983042190309,0.13613332897506691
14.184268,7.8455962499130525,0.13630636932122464
14.186663999999997,7.834142723941992,0.1364425424438703
14.189048,7.820267788343935,0.13662703397503975
14.191432,7.803459586439684,0.1368498373265075
14.193835999999996,7.7951716442002965,0.13697267597697224
14.196219999999997,7.79167929938666,0.13703703548170598
14.198604,7.7866967105058045,0.1371384223768737
14.201007999999998,7.789582754983758,0.13713732860520494
14.203391999999996,7.796984857633741,0.13709004213120188
14.205772,7.8069009177093385,0.13702474333053868
14.208167999999995,7.818260000023912,0.13695907729432674
14.210552,7.835066306070294,0.13683705589751696
14.212932,7.854526339169153,0.1366905196250031
14.215331999999997,7.872496128200793,0.13658368301160576
14.217716,7.894470118725265,0.13642297043285584
14.220111999999997,7.92259018111585,0.1361793266777191
14.222507999999998,7.956064919439626,0.13585537947909143
14.224895999999998,7.98325381627043,0.1356254061024697
14.227276,8.012305044220792,0.13537676676456684
14.229671999999995,8.046291639223767,0.13506829672841128
14.232059999999995,8.077624507174267,0.134781874696084
14.23444,8.109236914378489,0.1344844601183999
14.236832,8.1474147023294,0.13408469721658198
14.23922,8.186803195093809,0.13365927809199304
14.241599999999998,8.218882133006852,0.13330807373870782
14.243996,8.250449214240698,0.13295265149362315
14.246384,8.281132351743008,0.13257017366734017
14.248763999999998,8.305437099953732,0.13224846110015626
14.251155999999998,8.33551583297823,0.13183150564563847
14.253543999999998,8.36936645007008,0.13134858462295146
14.255923999999997,8.402193353803538,0.1308489249702596
14.258339999999995,8.435998644925016,0.13031260075893414
14.260724,8.467197430822264,0.12976482685418358
14.263119999999995,8.491645740375585,0.1292561770556112
14.265515999999998,8.514511258063068,0.12875753168124962
14.267903999999998,8.526854415339272,0.12837289199480434
14.270283999999997,8.537707328548256,0.12802593485734018
14.272688,8.553263291384374,0.12760130487487642
14.275076,8.569657871981656,0.12714378625003897
14.277455999999995,8.579953602541067,0.12672994354276262
14.279847999999998,8.593741677914114,0.12626042433816703
14.282235999999996,8.607669522914023,0.12578703551366358
14.284616,8.616801770488177,0.1253644802756589
14.287015999999998,8.634221960301721,0.12484525481398531
14.289399999999995,8.657788221981377,0.12425470843217427
14.291784,8.678281447727976,0.1237025876047373
14.294179999999995,8.70114886127333,0.12314433228334755
14.296567999999995,8.73095374261771,0.12251242758481791
14.298963999999998,8.753309299483865,0.12194896056877653
14.30136,8.76435110000582,0.12148655372280596
14.303748,8.773530569408221,0.1210398444826997
14.306127999999998,8.774561866198093,0.12068481144020227
14.308523999999998,8.77512663227914,0.12037972232458125
14.310907999999998,8.783512809890752,0.12002663026399268
14.313288,8.78845386451697,0.11969311686308175
14.315692,8.796095868023906,0.11930662716731548
14.318075999999998,8.792983193694086,0.11899512148964364
14.320459999999995,8.780930950818819,0.11877814735272434
14.322855999999998,8.763384262383497,0.1186365197675241
14.325243999999998,8.745790352119931,0.11852872536455207
14.327623999999997,8.723912701109814,0.11847659188977587
14.330028,8.698450157487443,0.11844975327239995
14.332411999999998,8.671916678678436,0.11843673342642054
14.334791999999997,8.633882452070123,0.11856358864812981
14.337196,8.592635419901894,0.11872845806163436
14.339584,8.552179783666585,0.11889106960103826
14.341963999999995,8.509861816311718,0.1190687354842664
14.344359999999998,8.46246871227738,0.11930104344973669
14.346747999999998,8.418101422347855,0.11953157840614594
14.349127999999997,8.379134134321895,0.11975963022093403
14.351532,8.340259394094552,0.12001721572009076
14.35392,8.304038380919684,0.12026101454528915
14.356303999999998,8.270378546998671,0.12045853259026582
14.3587,8.235647777891023,0.12066766111989836
14.361088,8.208598650687078,0.12083295853162555
14.363467999999996,8.182665784640145,0.12104690091626019
14.365868,8.170141323482447,0.12116752735614664
14.368256,8.1732143594155,0.12113208086210847
14.370635999999998,8.177498100162056,0.12107638177994234
14.373031999999998,8.186717207961221,0.12096921655483549
14.375419999999998,8.202454474678836,0.12080745652144578
14.377799999999995,8.222940116993959,0.12063508910442507
14.380195999999998,8.245520407854116,0.12046874793678135
14.382583999999998,8.273036065766886,0.12024897553885737
14.38498,8.295476587000183,0.12008534327660961
14.387376,8.318708504166397,0.11992040092451282
14.389764,8.344594148385086,0.11973823424618954
14.392143999999998,8.374064685216029,0.11953050175184354
14.39454,8.400601955740775,0.11935208521357484
14.396928,8.429560635892521,0.1191333444972474
14.399307999999998,8.4625235175371,0.11887107499163313
14.401712,8.50028199660743,0.11856380273734914
14.404096,8.53776093642404,0.11827067690561431
14.406479999999998,8.572725918815037,0.11798982498109428
14.408876,8.598519015235109,0.11778293023315385
14.411264,8.624219563856567,0.1175473623936746
14.413639999999996,8.647406155052407,0.1173273980473191
14.416035999999998,8.66123386882222,0.11722070802660305
14.418423999999998,8.680229267070123,0.1170873374338532
14.4208,8.699504204571749,0.11694448191430393
14.423195999999995,8.716916810953817,0.11681830796410857
14.425583999999995,8.731163833604212,0.11669860265942934
14.427964,8.746249474015768,0.1165450225556065
14.430359999999997,8.762406049613963,0.11637957567109963
14.432747999999997,8.787222654503882,0.11613796495106302
14.435128,8.813110194580442,0.11588511031816287
14.437531999999996,8.837275173164304,0.115641883685726
14.439915999999997,8.861859460628748,0.11538408574579362
14.4423,8.890727488839746,0.11507617462984808
14.444712,8.920154595558184,0.11474893111018722
14.4471,8.949861241530343,0.11441440097468927
14.449479999999998,8.97877649156958,0.114084591775892
14.451884,9.006760576049041,0.11376203733954084
14.454272,9.03660699164806,0.11342654274089116
14.456651999999998,9.073902731725308,0.113038035092093
14.459055999999997,9.11226940698919,0.11263889315460142
14.461443999999997,9.14812212482746,0.11225179780928074
14.463824,9.180809258934056,0.11186663114929071
14.46622,9.209259874122342,0.11150011830768483
14.468608,9.230633251884738,0.11120109010848295
14.470987999999998,9.250144298527578,0.11091641640248055
14.473391999999995,9.271098367409396,0.1106352089276974
14.475779999999997,9.29256429297041,0.1103656370350355
14.47816,9.308163685919032,0.11014511627262423
14.480556,9.320690042934599,0.10995638176603342
14.482944,9.328281032897557,0.10981040998283167
14.485324,9.336803188420292,0.10965835961559223
14.48772,9.342903934316027,0.10954120048470715
14.490104,9.348725140958043,0.10943561350470099
14.492487999999998,9.350262606853505,0.10937672190056813
14.494888,9.347144244950076,0.10934912889198913
14.497276,9.340021681553813,0.10935706099416309
14.499655999999998,9.332247491851492,0.10936050143617845
14.502059999999997,9.321679805469836,0.10938256603977305
14.504448,9.303103716102513,0.10947603446307595
14.506828,9.28438785710833,0.10957403668284797
14.509224,9.26231942292737,0.10971252264968068
14.511612,9.247560543597778,0.10980630199008554
14.513991999999998,9.233593060201104,0.1098991287780179
14.516395999999997,9.227122123110899,0.1099111692491887
14.518783999999997,9.220790955647555,0.10991775335214105
14.521164,9.21595003225143,0.10989673800106023
14.523567999999996,9.20659305068327,0.10990097937851148
14.525951999999997,9.204313306541005,0.109841054456911
14.528332,9.202732410533038,0.10975467233706286
14.530739999999998,9.206366420831403,0.10961660745159352
14.533127999999998,9.20920903519685,0.10947957405274168
14.535507999999997,9.212470958442879,0.10932668427594286
14.537903999999996,9.214010320196211,0.10918097660703159
14.540291999999996,9.220764588255873,0.10898467283922351
14.542672,9.231243518554649,0.10876488608127985
14.545067999999995,9.243724549599843,0.10852742969557963
14.547455999999997,9.259138846951235,0.10826780479128499
14.54984,9.278697115422316,0.1079694822318867
14.552235999999995,9.301747728707035,0.1076245673546316
14.55462,9.324006946058837,0.10728134674894649
14.557004,9.35148106971697,0.10688718790926065
14.559407999999998,9.376581005576348,0.10649873546769857
14.561791999999995,9.402612106995507,0.10610539539959024
14.564172,9.426221798787667,0.105747746799854
14.566575999999998,9.451554052072524,0.10538542007870644
14.568963999999998,9.477026074984238,0.10502130597847675
14.571344,9.509435565694986,0.10460417698830544
14.573739999999995,9.538911790099537,0.10421168866869958
14.576127999999995,9.56610637450395,0.10384656722393876
14.578508,9.590227922975307,0.103509283973588
14.580903999999997,9.615560176260164,0.10315796918595796
14.583288,9.643034299918297,0.10278790752732064
14.585672,9.671439589136208,0.10241382642058448
14.588068,9.694769741674646,0.10208276934831839
14.590452,9.712512900854417,0.10178311900269084
14.592831999999998,9.732397930407465,0.10146429357757547
14.595247999999998,9.749209924027458,0.1011720712287563
14.597635999999998,9.765602608766867,0.10089689815972847
14.600012,9.785068329439335,0.10059764118534713
14.602415999999998,9.806536150858218,0.10028484333950778
14.604803999999998,9.824279310037985,0.09999298405467416
14.607187999999995,9.83880966365784,0.09973116691860945
14.609583999999998,9.852828160598497,0.09946040664482225
14.611971999999998,9.866474570486815,0.09917590076356068
14.614351999999997,9.873602821456686,0.09892502567284783
14.616747999999998,9.877658036493502,0.09869928698157457
14.619135999999996,9.877057423731426,0.09849867604739554
14.621516,9.87766751578285,0.09828391595181375
14.623919999999998,9.879488312647773,0.09805460686644393
14.626307999999998,9.884801454326327,0.09778745317943548
14.628687999999997,9.889043660818245,0.09753051718026289
14.631087999999998,9.889281665817332,0.09730208305626264
