Time,Force,Position
13.808852000000002,0.039713871544851884,0.0
13.811248,0.039713871544851884,0.0
13.813636,0.039713871544851884,0.0
13.816016,0.039713871544851884,0.0
13.81842,0.039713871544851884,0.0
13.820808,0.039713871544851884,0.0
13.823188000000002,0.039713871544851884,0.0
13.825584,0.039713871544851884,0.0
13.827972,0.039713871544851884,0.0
13.830352,0.039713871544851884,0.0
13.832756,0.039713871544851884,0.0
13.83514,0.03955137473826126,0.0
13.837524000000002,0.03631584199861526,0.0
13.83992,0.02907610776613555,0.0
13.842304000000002,0.020905207973877522,0.0
13.844684,0.014456869674315921,0.0
13.847088,0.007868761747894113,0.0
13.849476,0.003003215314168736,0.0
13.851856000000002,0.0,0.0
13.85426,0.0,0.0
13.856648,0.0,0.0
13.859028000000002,0.0,0.0
13.861424,0.0,0.0
13.863812,0.0,0.0
13.866192000000002,0.0,0.0
13.868588,0.0,0.0
13.870976,0.0,0.0
13.873356,0.0,0.0
13.87576,0.0,0.0
13.878144,0.0,0.0
13.880528000000002,0.0,0.0
13.882924,0.0,0.0
13.885308000000002,0.0,0.0
13.887688,0.0,0.0
13.890096,0.0,0.0
13.89248,0.0,0.0
13.89486,0.0,0.0
13.897264,0.0,0.0
13.899652,0.0,0.0
13.902032000000002,0.0,0.0
13.904436,0.0,0.0
13.906824,0.0,0.0
13.909204,0.0,0.0
13.9116,0.0,0.0
13.913988,0.0,0.0
13.916368000000002,0.0,0.0
13.918768,0.0,0.0
13.921156,0.0005818056871712542,0.0
13.923536000000002,0.002374316187841249,0.0
13.925932,0.0038872874347908237,0.0
13.928316,0.007402359428157249,0.0
13.930700000000002,0.012360453660499685,0.0
13.933104,0.01512945569132191,0.0
13.935488,0.018083553319378255,0.0
13.937868000000002,0.02732159658253632,0.0
13.940272,0.04251682439883256,0.0
13.94266,0.06469295012666233,0.0
13.94504,0.09622416156477998,0.0
13.947444,0.13687624542983895,0.0
13.949832,0.19176966437168547,0.011039027207631632
13.952212,0.2680742036148256,0.02126053798819215
13.954608,0.3690026687191749,0.03072762166685434
13.956992,0.49297226781889736,0.039787628422054154
13.959372000000002,0.6444537331156502,0.048217881358108526
13.961768,0.814414948265371,0.05648530579623436
13.964156,0.9976410069617268,0.06482978399859317
13.966552,1.1968781840558098,0.0732298380927726
13.968948,1.4141984009129234,0.08161290818115878
13.971332,1.6525576510189932,0.08990105654251808
13.973716,1.9129343217620405,0.09809832544279819
13.976120000000002,2.195607952395786,0.10613172658622722
13.978504,2.496109706576441,0.11409062785085868
13.980884,2.8217038131849983,0.12188574107339331
13.98328,3.1664311918104517,0.12958672601911325
13.985668,3.5231692790565368,0.1371845817060676
13.988048,3.8924318274603196,0.14464411403507968
13.990452,4.270029539931736,0.1519966458145125
13.992836,4.650282875313497,0.15927415651798274
13.995216,5.0345914257320725,0.1663955678666965
13.997624000000002,5.412714265887772,0.16233815978645968
14.000008,5.764445292719191,0.15909907804947843
14.002388,6.087130779173856,0.15658990146441387
14.004784,6.379932107490606,0.15450872584948505
14.007172,6.636933627370937,0.15318026762904433
14.009552,6.878993068182311,0.15201393584991899
14.011956,7.114677911417834,0.15071271079604648
14.01434,7.340637477748601,0.14926320356715128
14.016724,7.553194326763743,0.14772279895805346
14.019128000000002,7.742385176559417,0.1462317459286154
14.021512,7.907231639747602,0.1448201252299785
14.023892,8.042331818566865,0.14362425200828144
14.026292000000002,8.160954348279574,0.1424736351328231
14.028676,8.260398280005015,0.14144840900361302
14.03106,8.341734548929825,0.14049544547333942
14.033464000000002,8.40733734285276,0.13959611746070227
14.035852000000002,8.451153137706326,0.13885398616046812
14.038232,8.477138913155109,0.13823475852689657
14.040636,8.490602123304061,0.13768135119031488
14.043024,8.4907494763624,0.13729027346232503
14.045404,8.483120743860546,0.13702653154213384
14.0478,8.48554784106115,0.13669680482460617
14.050184000000002,8.495701906135833,0.13637331496078725
14.052564,8.515212952778674,0.13601385966046525
14.05496,8.544362416101261,0.1355044034110799
14.057348,8.572535387893694,0.1349480298928534
14.059728,8.593306257036145,0.13444037761056457
14.062132000000002,8.606208492819793,0.13403104934254972
14.064520000000002,8.615571161961556,0.1337180228028551
14.066904,8.628424280059088,0.13344224989274667
14.069300000000002,8.646258091179604,0.13316969642244592
14.071684,8.67019075233799,0.13284842185776358
14.074068,8.693891096070898,0.13251001374361793
14.076464,8.707488388273104,0.13226421130421687
14.078852,8.716941709355616,0.1320725381042396
14.081232,8.72206406786333,0.13197529225656685
14.083628,8.733657363461253,0.13184751006395884
14.086016,8.748416242790846,0.1317069039055669
14.088396,8.762895582866717,0.1315783997518447
14.090792,8.772207238464501,0.13148553854337103
14.093176,8.779377023689007,0.13142338614658897
14.095576,8.77867817555471,0.13145408383307133
14.097972000000002,8.77267187331546,0.1315279018965563
14.100360000000002,8.762801139210234,0.13164479164870685
14.10274,8.750508995478013,0.13180444695141322
14.105136000000002,8.732722406185738,0.13204679475547115
14.107524000000002,8.714656277639742,0.1323016515298288
14.109908,8.698312710586444,0.13254458880459172
14.112304000000002,8.67438004942806,0.13287080516015468
14.114696000000002,8.644488307858666,0.1332391404557588
14.117076,8.609568651438046,0.13363981088682314
14.119472000000002,8.574276907965086,0.1340242714837411
14.121856,8.531209078931937,0.13453332839904938
14.12424,8.499035697362405,0.13494261915172687
14.126644,8.47100628691257,0.13529630879957502
14.129032,8.44223270235806,0.13562285030611063
14.131412,8.4088505118329,0.13596205096428002
14.133808000000002,8.37695856537496,0.13626442018395044
14.136192,8.346649410782854,0.13656018770179135
14.138576,8.326303538094592,0.13676355935901213
14.14098,8.311125349884419,0.13692818558330286
14.143368,8.299392284659637,0.1370680217327598
14.145748,8.289521550554415,0.13718939360863458
14.148148,8.284074326822603,0.13724067436017487
14.150532000000002,8.281560369396988,0.1372568934763779
14.152916,8.28183990865071,0.13724431994693803
14.155312000000002,8.284353866076325,0.13722792268016473
14.157700000000002,8.287239910554275,0.13722699197073135
14.16008,8.297715049137315,0.13714143895107267
14.162476000000002,8.314289037758222,0.13700598593161242
14.164864,8.336310250110937,0.1368182352705284
14.167244,8.359262628023432,0.13662198804447911
14.169644000000002,8.389571782615537,0.1363169220184491
14.172032000000002,8.413642317542914,0.13606969501304372
14.174412,8.437573082843429,0.13583052798047157
14.176808,8.467230611129475,0.13552819144603045
14.179196,8.500473032027775,0.1351949711648575
14.181592000000002,8.528640316246602,0.1349283708729187
14.183996,8.55629574378623,0.134653412836327
14.186384,8.57850394759405,0.134431944606805
14.188764,8.597454019871583,0.1341977227315848
14.19116,8.615659918044438,0.1339333927037681
14.193544,8.633633498791815,0.13364748667369045
14.195928000000002,8.645088920620742,0.1334272170013936
14.198332,8.654589463531497,0.13319880753451277
14.20072,8.664928624203416,0.13293383329673072
14.2031,8.676385941890215,0.1326216561231254
14.205496,8.69161514364437,0.13224215177457022
14.207884,8.708614128719462,0.13182096814167565
14.210264000000002,8.721935673383689,0.13140316746854883
14.212668,8.73330233912974,0.1309784222008881
14.215056,8.744948544129512,0.13054374804712932
14.217436,8.753521713196227,0.13014780072471016
14.219832,8.767961414875332,0.12968996826788426
14.22222,8.785613922114353,0.12919302835986737
14.2246,8.80154386786068,0.12871103799302172
14.226996,8.814540547300808,0.12826096791097338
14.229384,8.833031672300992,0.12773450273910042
14.231764000000002,8.849520696554759,0.12722965655604654
14.23416,8.868151591181801,0.12669734041844033
14.236548,8.885152472114765,0.12620213387494267
14.238932000000002,8.899871713047594,0.1257399955708079
14.241328,8.911797457301086,0.12530095229811433
14.243716,8.926516698233911,0.12483459318505519
14.246096,8.941608026219074,0.12438425750870798
14.2485,8.95520911013702,0.12396617078524637
14.250888,8.966016697375629,0.12357474898824627
14.253268000000002,8.967512629016456,0.12326480138405285
14.255664,8.963281797671751,0.12300964330237273
14.258052,8.961425154125802,0.12274775495411042
14.260432000000002,8.959661058378469,0.12251324341015934
14.262836,8.952542286697946,0.12234729356070416
14.265224,8.946354680577201,0.12217321644352186
14.267608,8.932438210724506,0.1220746545855141
14.270012,8.909582172326367,0.12207096104611852
14.2724,8.885235889861006,0.12209770199755779
14.27478,8.863683104074982,0.12210015416300747
14.277176,8.837846577542404,0.12215641575978886
14.279568,8.812661677315885,0.12221728825876589
14.281948,8.786266072275865,0.12229666281858577
14.284344,8.758519992795486,0.1224029499508403
14.286732,8.734451353725978,0.1225109448103697
14.289112,8.717645047679595,0.12259383407960175
14.291508,8.702421533499045,0.12267229388306095
14.293896,8.683705674504862,0.12280484453014459
14.296276,8.666712377003373,0.12292714259297773
14.298672,8.648740692113863,0.12309073607320267
14.30106,8.635796922075585,0.1232310177467537
14.303440000000002,8.62452849170176,0.12339523224137766
14.305844,8.614703083566909,0.1235598451493512
14.308232,8.605017445058918,0.12371794915016501
14.310616,8.600918799909598,0.12382847210037702
14.313012,8.600032960320194,0.12389686053040645
14.315396,8.602592243716183,0.12394523010558114
14.31778,8.61246108196354,0.12393492340532514
14.320176,8.62405248170359,0.12391455184418028
14.322564,8.632850384764307,0.12391853945479599
14.324944000000002,8.646164345997057,0.1238885606253897
14.32734,8.666415775028833,0.1237865197386617
14.329728,8.688389765553307,0.12367529812726247
14.332108000000002,8.721165655742782,0.12345714141722523
14.334504,8.75464039406656,0.12321141836577426
14.336892,8.786300023099022,0.1229520954956427
14.339272,8.819170356944985,0.12267587936424058
14.341676,8.861259798590112,0.1222992803400939
14.344064,8.905351340981657,0.12190530887768951
14.346448,8.952795458559976,0.12146702185310017
14.348844,9.002241676884715,0.12101022253213745
14.351232,9.052666282597473,0.12051352057149221
14.353612000000002,9.100996239765196,0.12001486478773277
14.356008,9.145321995440087,0.11955537134552431
14.358396,9.18899612480892,0.11909452856051667
14.360776,9.23360141973753,0.11863417529108035
14.363176,9.281699059479777,0.1181281233081068
14.365564,9.32849344660991,0.11761854255718703
14.36796,9.375707142620623,0.11709637430288886
14.370356,9.422920838631335,0.11657315400720172
14.372744,9.466689411656654,0.11606954323598448
14.375124,9.500075393897552,0.11564981321142229
14.37752,9.5281539220335,0.11526013792636772
14.379908,9.540774722705553,0.1150036121678499
14.382292,9.551161105205711,0.11474703162522769
14.384688,9.555169098414282,0.11453275643227259
14.387076,9.556523364570381,0.11433403130288927
14.38946,9.55000899736767,0.11420631076788239
14.391856,9.538978571992931,0.11410677176006091
14.394244,9.523012779565574,0.11405140322151121
14.396624,9.506907217511364,0.11400106700209207
14.39902,9.492524216949848,0.11394233209706885
14.401408,9.480515404187084,0.11387945515646541
14.403792,9.476514994409987,0.11374342017179032
14.406188,9.47465645500617,0.11358447533332479
14.408576,9.4667916133631,0.11347975408319202
14.410956,9.458507462839451,0.11339077960142747
14.413352,9.449804003435224,0.11331731091944951
14.41574,9.434163076231965,0.11330309647504162
14.418124,9.419034005707903,0.11329839461843705
14.42052,9.409352158915652,0.11326103806693252
14.422908,9.406328240668708,0.11317489582817633
14.425292,9.407540841340078,0.11307291727541866
14.427688,9.423931630221617,0.11286046347910415
14.430076,9.442556837275053,0.11265116958930917
14.432456000000002,9.47007439104569,0.1123962136066264
14.434856,9.502759629294419,0.11212220100928873
14.437244,9.541590939409259,0.1117928564059756
14.43964,9.582284580643654,0.111451209533654
14.442036000000002,9.630846855236854,0.11104757467342741
14.444424,9.679828438710635,0.11063228645312113
14.446804,9.725225129572168,0.11023739523251794
14.449196,9.764755287821306,0.10988853840647698
14.451584,9.799350079017833,0.10958310022880874
14.453964,9.828357876855689,0.10931403363065846
14.45636,9.854851717267932,0.10904984420795744
14.458748,9.873896233201947,0.10883244157206326
14.461132,9.89284820133735,0.10859151778453438
14.463528,9.914221579099745,0.10831570063827452
14.465916,9.937644279436801,0.10799406940567192
14.468312,9.94989299305652,0.10774286507642604
14.470708000000002,9.960558914810399,0.10749440504151055
14.473096000000002,9.974065555071858,0.10720056234050321
14.475476,9.976677747869697,0.1069670628135697
14.477876000000002,9.97756737917484,0.10674049239403499
14.480264000000002,9.971799081934675,0.10655903219565213
14.482644,9.956719129096726,0.10643385530682677
14.48504,9.93377054289997,0.10636819626455714
14.487428,9.911753122262994,0.10629647053159919
14.489812,9.882798233826986,0.10627785079690874
14.492208000000002,9.843553302405176,0.10635130142168894
14.494596,9.80547185396862,0.10643898301048173
14.496976,9.771534376651758,0.10648943826226351
14.499380000000002,9.736525964148257,0.10655062492378396
14.501768000000002,9.706545466495989,0.10659778809087866
14.504148,9.68480568925486,0.10659917207616855
14.506544000000002,9.672517337238379,0.10653925599014757
14.508932,9.659902224139932,0.10651868120178017
14.511312,9.653385961079351,0.10647409433146916
14.51372,9.647753641750306,0.10645324662187637
14.516104000000002,9.65436624432524,0.10635633004297977
14.518488,9.66321326507207,0.10626354339386002
14.520884,9.667217466564905,0.10623220074014067
14.523272000000002,9.678251683655386,0.10617288473725003
14.525652,9.687795656678647,0.10613855566866283
14.528048000000002,9.700924522314159,0.10608762934677919
14.530436000000002,9.718569446121704,0.10601385422950103
14.532816,9.744594859967254,0.10589174892636334
14.535216000000002,9.770200964932222,0.10578514807849781
14.537604000000002,9.798880105830246,0.10565253020261954
14.539984,9.84106209527399,0.10539928661723537
14.54238,9.88687619915823,0.10510205737019
14.544768,9.934692403788889,0.10479270091214746
14.547152,9.983719313233046,0.10446816904237186
14.549548,10.032234365998004,0.10413731257668957
14.551936,10.07809569171049,0.10382086682877933
14.554316,10.115296988131247,0.10356182535244446
14.556712,10.15147457119361,0.10328398896228594
14.559104,10.188351002390275,0.10298667664424384
14.561484,10.219919979481993,0.10271017679367894
14.563884000000002,10.246833128774815,0.10246218746959843
14.566272,10.272303255828662,0.10221173354568874
14.568652,10.301545266949866,0.10191424833972249
14.571056000000002,10.324408888779482,0.1016468579949734
14.573440000000002,10.350764855422733,0.10134174075703416
14.57582,10.378099209454007,0.10100617841156763
14.578224,10.408274281992858,0.1006300137831353
14.580612000000002,10.430208634120568,0.10029302016204683
14.582992,10.452841834382573,0.09993399528653933
14.585396,10.472681537965247,0.09958927213274846
14.587784,10.488237500801368,0.09928492567399412
14.59016,10.498858096584875,0.09901365856360518
14.592556000000002,10.502820763823072,0.09877901833086081
14.594944000000002,10.505200639195435,0.09854410545513737
14.597324,10.502133290835987,0.09833156631119928
14.599728,10.496412215424062,0.09812787709366731
14.602116,10.496976981505112,0.09787379761146586
14.604496,10.494328942026245,0.09764616066092614
14.606896,10.481810168442156,0.0974819904398116
14.609280000000002,10.473435365977759,0.09728551471470823
14.611664,10.462406836460884,0.09709771391503091
14.614060000000002,10.449376206197597,0.09692336604904732
14.616444,10.43192206556089,0.09678973246223502
14.618824,10.416470025670606,0.09664216729123129
14.621228000000002,10.397944949847265,0.0965170431689858
14.623616000000002,10.376858694770062,0.09642333644475794
14.626,10.351069390065732,0.09637890567482978
14.628392000000002,10.328864977973652,0.09632147895811065
14.63078,10.30610148737413,0.09628200264859732
14.63316,10.285851954200222,0.09623853645279015
14.635560000000002,10.263460550653038,0.09621279015802504
14.637944,10.243443334904606,0.09618778231478482
14.640340000000002,10.228873342887985,0.09614115472432383
14.64274,10.217468934603035,0.09609538407500579
14.645124,10.211232210796178,0.09603733091331215
14.647508000000002,10.208440609974716,0.09597115532850536
14.649904,10.204950161018948,0.09592804109824501
14.652288000000002,10.212541150981904,0.09581132073080122
14.654672,10.229723335796363,0.09564332784267056
14.657068,10.2466259813571,0.09548544977500754
14.659456,10.264320022850757,0.09532780800866265
14.661836,10.284016165090831,0.09515782340579204
14.664232000000002,10.30813581770432,0.09494917768473067
14.666620000000002,10.334397340691089,0.09472406080977129
14.669004,10.363080273304853,0.09447354444584762
14.671400000000002,10.391111579612557,0.09421832843015915
14.673788000000002,10.423706165920535,0.09392039176409256
14.676172,10.458722161855514,0.09359825594262162
14.678568000000002,10.493505840365014,0.09325898493089942
14.680956000000002,10.531130237382092,0.09288361240840613
14.68334,10.569593252160331,0.0924816868179778
14.685736000000002,10.60917442395345,0.09204635178442118
14.688128,10.64451907682826,0.09161754108360996
14.690508,10.67576698041162,0.0911904469552089
14.692912,10.703989069890168,0.0907573232698969
14.6953,10.731978841943238,0.09030849630363358
14.697680000000002,10.754940699145079,0.089864231849698
14.700084,10.76523832556236,0.08948760411263876
14.702468,10.770088728247831,0.08912992556255203
14.704848000000002,10.772564943134547,0.08877011142070988
14.707252,10.776251862834764,0.08839792213065127
14.70964,10.778216221042284,0.08802896863181955
14.71202,10.774034507383695,0.0876986457820713
14.714416,10.766779757792047,0.08738760849124418
14.716804,10.75458964114779,0.08710233097346703
14.719184000000002,10.740397423757116,0.08682760704092184
14.72158,10.723132170433384,0.08657213472195946
14.723964,10.70186271561682,0.08633893214930151
14.726344,10.677380455240339,0.08612839120350259
14.72876,10.645541418184248,0.0859673207812253
14.731144,10.615145403367137,0.08581160170639283
14.733524,10.579254942989973,0.085697958473785
14.735928,10.5468096055982,0.08557888794540144
14.738316,10.517949160818677,0.08545003032977701
14.7407,10.490671507904992,0.08532243208770289
14.743096,10.459901510177671,0.08522582574500684
14.74548,10.431505700249103,0.08513196657639116
14.74786,10.410559214798763,0.08501131384996645
14.750264,10.392778313080095,0.08489480592611837
14.752652,10.376160894346683,0.08479332310428425
14.755032,10.359775793038745,0.0847103773862505
14.757436000000002,10.344693944342927,0.08463824613642337
14.759824000000002,10.335059319378916,0.0845509480779047
14.762204,10.326216090347824,0.0844645674825394
14.764600000000002,10.324542646541236,0.08436101390136233
14.766988,10.32831642646646,0.08424255108957775
14.769368,10.332602063070881,0.0841340187153016
14.771764,10.340053283406977,0.08403027805943433
14.774152,10.352160331541963,0.08391063320939784
14.776532,10.370785538595396,0.08376862812199817
14.778936000000002,10.387268875275554,0.08364213340963379
14.781324,10.411341306060798,0.08348619804954056
14.783704,10.436484672032678,0.08332400627362704
14.7861,10.461488268377703,0.08316722782200334
14.788488,10.487934886961702,0.08301811182391172
14.790868,10.517175002225036,0.0828598325759535
14.793264,10.550698858234925,0.0826733936151526
14.795652,10.583291548685036,0.08249138226297241
14.798032,10.613649820963253,0.08230199390162972
14.800436,10.647500438055106,0.08208383439923221
14.802824,10.6826089817887,0.08182898135821313
14.805204,10.717485208096821,0.08155690820623712
14.807608000000002,10.7514774906734,0.08126271416781408
14.809992,10.79096421881004,0.08093155813972769
14.812372,10.831569103961556,0.08057198732681475
14.814772,10.872500750195037,0.08018198008545871
14.817156,10.917623589376456,0.07974615009689026
14.81954,10.960139923333642,0.07928908844015264
14.821944000000002,11.000841147999514,0.07881381371579438
