Time,Force,Position
16.851447999999998,0.014744064990535818,0.0
16.853848,0.019082181508694982,0.0
16.856236000000003,0.021138658026716876,0.0
16.858615999999998,0.025197235291155622,0.0
16.861019999999996,0.03004720848851248,0.0
16.863404000000003,0.03475741205900912,0.0
16.865788000000002,0.04146971637592262,0.0
16.868184,0.04711108550619759,0.0
16.870572000000003,0.053823389823111085,0.0
16.872951999999998,0.05881313264732815,0.0
16.875348000000002,0.0628717099117669,0.0
16.877736,0.07014309273612122,0.0
16.880116,0.07555214444091893,0.0
16.88252,0.08217190095921535,0.0
16.884908000000003,0.088931427104372,0.0
16.887292000000002,0.09047604694319622,0.0
16.889688,0.09388299790157706,0.0
16.892076000000003,0.09765488196893349,0.0
16.894455999999998,0.10021606122279118,0.0
16.896856,0.09891280861067538,0.0
16.899243999999996,0.09346558487886567,0.0
16.901623999999998,0.09174302338616924,0.0
16.904024,0.09123116670697155,0.0
16.906408,0.0871725894425328,0.0
16.908792,0.08232261624517594,0.0
16.911188000000003,0.0776124126746793,0.0
16.913576,0.0709001083577658,0.0
16.915968,0.06525873922749084,0.0
16.918371999999998,0.058546434910577344,0.0
16.92076,0.05355669208636028,0.0
16.923139999999997,0.04949811482192154,0.0
16.925539999999998,0.0422267319975672,0.0
16.927928,0.0368176802927695,0.0
16.930312,0.03019792377447307,0.0
16.932707999999998,0.02343839762931642,0.0
16.9351,0.021893777790492217,0.0
16.93748,0.018486826832111374,0.0
16.939880000000002,0.012938005500453466,0.0
16.942268,0.007389184168795558,0.0
16.944648,0.004773629143332824,0.0
16.947048000000002,0.00416017486428694,0.0
16.949436,0.0015446198388242044,0.0
16.951816,0.0,0.0
16.954212,0.0,0.0
16.9566,0.0,0.0
16.958984,0.0,0.0
16.96138,0.0,0.0
16.963772,0.0,0.0
16.966152,0.0,0.0
16.968552000000003,0.0,0.0
16.970936000000002,0.0,0.0
16.97332,0.0,0.0
16.975716,0.0,0.0
16.978104000000002,0.0,0.0
16.980488,0.0,0.0
16.982884,0.0,0.0
16.985272000000002,0.0,0.0
16.987656,0.0002866931970823131,0.0
16.990052,0.0030401219915360154,0.0
16.992440000000002,0.011425870115033546,0.0
16.994819999999997,0.02190437092569574,0.0
16.99722,0.040434704834530016,0.0
16.999608000000002,0.06859966370737255,0.0
17.001987999999997,0.10933251385041859,0.0
17.004388,0.16198162895761015,0.009034633215335524
17.006776000000002,0.22733840496186541,0.01768578768155546
17.00916,0.3071726251841239,0.025791815816074586
17.011556,0.3976198577584122,0.03377041354913274
17.013944000000002,0.4974693978712315,0.041755729879750444
17.016328,0.6092824247764395,0.04952710234589797
17.018724,0.7284031106751446,0.05732915854766549
17.021112000000002,0.8517584196342914,0.06532679049244627
17.023496,0.9810709131465764,0.07344579796558481
17.025892,1.118575009383894,0.08164018372897404
17.028284,1.2621288379729665,0.09001742852426492
17.030664,1.417319392272464,0.09834143647322645
17.033063999999996,1.5845659811629675,0.10656822988749705
17.035452,1.759764701409664,0.11476595810268102
17.037832,1.9410622716942283,0.12282703352657103
17.040231999999996,2.118402862314202,0.1309250641145082
17.04262,2.299936541739982,0.1387832735960417
17.045,2.4745365450824717,0.1465252074350436
17.047404,2.6391770582368586,0.1541595372957887
17.049788,2.7852905997100343,0.1619171122100279
17.052168,2.913528795808057,0.16077141923552984
17.054564,3.025893747277345,0.16006100708148022
17.056952000000003,3.121359844901631,0.16001891925445902
17.059328,3.206585017226225,0.16013879949458912
17.061723999999998,3.282128342758567,0.1602843527225757
17.064112,3.345940498923998,0.16069445511538025
17.066491999999997,3.4041675575886288,0.16102922462761102
17.068888,3.458299762819678,0.1611523835430143
17.071275999999997,3.5058231571915304,0.16115213865896375
17.073659999999997,3.54678496253243,0.16096700303043024
17.07606,3.581464718096097,0.16054898514069338
17.078448,3.6001314594041682,0.16030067637480108
17.080827999999997,3.6012949423894236,0.1603210893773744
17.083224,3.592869126381044,0.16045455422730304
17.085611999999998,3.575039106976266,0.16082838271182529
17.087992,3.5585595620118453,0.16111771008766776
17.090387999999997,3.5388199896592667,0.161600982829171
17.092776,3.518613886597864,0.1622017737390069
17.095171999999998,3.498313339879975,0.16296016310876427
17.097564,3.483460016893895,0.1635774972426156
17.099952000000002,3.474705543945684,0.16404673906626815
17.102331999999997,3.4703273595426443,0.16439896888929514
17.104736000000003,3.4675791888336835,0.16464319228454355
17.107124,3.4658094055127435,0.16477172284359176
17.109504,3.4669728884979993,0.16479182611958298
17.1119,3.467624514804057,0.16479363649856213
17.114288000000002,3.4670654362966156,0.1648580294578479
17.116667999999997,3.471674042267264,0.16479176391050857
17.119072000000003,3.4805191671562232,0.16462932608869324
17.12146,3.486663343164464,0.16461971597200822
17.12384,3.496252642158099,0.16453166519054743
17.126244,3.50770427227129,0.1643793330684946
17.128631999999996,3.524091269437093,0.1640376175148147
17.131012,3.543179215483614,0.16353901992421485
17.133408000000003,3.562034844104658,0.162979201602103
17.135796,3.5785162849269465,0.16246972244096625
17.138176,3.58768817089787,0.16218055079564814
17.14058,3.5967202872419337,0.161907929179496
17.142967999999996,3.6060319428397167,0.16160091485209765
17.145352000000003,3.620371513288729,0.16118483062470593
17.147748,3.638435745976855,0.16066174321460164
17.150132,3.6552892738514813,0.16020386573379
17.152516,3.6713514057931897,0.15975475007044249
17.154911999999996,3.6849921281079014,0.15942887187492577
17.1573,3.6943963315043016,0.15920388664455232
17.15968,3.7000758726615883,0.15909070453930682
17.162076,3.705895183445736,0.1589617340341202
17.16446,3.7050565656845738,0.15905556131994264
17.166843999999998,3.6971407104975236,0.15941804684331284
17.169240000000002,3.6930892871764462,0.15964561461532134
17.171624,3.6875476197881505,0.1599577733957276
17.174003999999996,3.689595046504942,0.16002830143335756
17.176403999999998,3.6921543299009305,0.16011670566883995
17.178787999999997,3.6925717429236418,0.16029078716419573
17.181184000000002,3.694479400013573,0.16037700902701865
17.183583999999996,3.69308170374497,0.16052944136167774
17.185968000000003,3.695827978596062,0.1605228123921111
17.188352000000002,3.696851691954458,0.16055809887154165
17.190748,3.6978754053128537,0.1605933249717064
17.193136000000003,3.693172355685719,0.16081608470317432
17.195520000000002,3.6843253349388903,0.1611940302555513
17.197916,3.675338544565201,0.1615877400284023
17.2003,3.6687259419902665,0.16194337261482677
17.20268,3.660390777922636,0.16234759252824113
17.205076,3.6525674705342026,0.16277394262765618
17.207464,3.6518214005716585,0.16293264392220724
17.209843999999997,3.6514946394896945,0.16304373065860933
17.212244,3.6543806839676463,0.16302020363139225
17.214632,3.6646235051252076,0.162697635997938
17.217028,3.6717932903497137,0.16249678177526186
17.219423999999997,3.676169578894885,0.1623830423543371
17.221812,3.6731890907604465,0.1625621839598455
17.224192000000002,3.670999998558926,0.16272768157027945
17.226591999999997,3.669742071917184,0.16286502206697365
17.22898,3.6660627356484445,0.1631216410928761
17.231360000000002,3.668110162365235,0.16319136454818095
17.233756,3.67458109945544,0.16307472701928516
17.236143999999996,3.6845443813592818,0.16280119556552458
17.238523999999998,3.6974409295693182,0.1624345730633545
17.240927999999997,3.7142019096453276,0.16194595252242655
17.243316,3.7293800978555014,0.1614760517277427
17.245696000000002,3.7445582860656748,0.16100459814248022
17.248092,3.758153682410012,0.16055850292903615
17.250479999999996,3.778826316180239,0.15986573762264822
17.25286,3.802060129204323,0.1590467954838905
17.25526,3.823571380735711,0.1582869297668354
17.257644,3.842289135587763,0.1576058224883855
17.260024,3.8582133937604803,0.15700698066114283
17.262424000000003,3.871623694507584,0.15647189752814802
17.264812,3.8853135345084087,0.1559067034848386
17.267192,3.9039387415618445,0.15519299844825618
17.269588,3.9259165238020564,0.15434021722310892
17.271976000000002,3.9493845501094866,0.1534178613745151
17.274372,3.972712806790057,0.15251088076843888
17.276767999999997,3.997391537910987,0.15152549777940386
17.279156,4.018345606792803,0.1506534850537322
17.281536000000003,4.031291272688952,0.1500408192387224
17.283932,4.041024133025184,0.1495479358692806
17.286319999999996,4.049313971122441,0.14906984452160246
17.2887,4.054438225488026,0.14863523794771125
17.291108,4.062216206906085,0.14814163319834076
17.293492,4.074417698697559,0.14749498952389645
17.295876,4.091414787914784,0.14672912059741353
17.298271999999997,4.103196970825677,0.14613950937354747
17.30066,4.1145598448559895,0.14559619727312356
17.303040000000003,4.125782949259443,0.14507224925580903
17.305436,4.1407307159020075,0.14446339166236258
17.307823999999997,4.157028956984933,0.14379372700323165
17.310204,4.17104555806772,0.14320815636210263
17.312612,4.186272863964006,0.14257869496977849
17.314999999999998,4.195913176501621,0.14208052756180184
17.31738,4.205553489039238,0.14158642062495322
17.319775999999997,4.211980996016938,0.14119470481336313
17.322164,4.221481538927693,0.14072159758895877
17.324543999999996,4.237640010383758,0.1401086359013583
17.32694,4.252448007399463,0.13954744446118325
17.329327999999997,4.27205160184092,0.13886825889092175
17.331711999999996,4.2959389370289305,0.13806766317534863
17.334108,4.3163339274033055,0.13738755484895307
17.3365,4.335098904083602,0.13678414855088955
17.338879999999996,4.355214355204257,0.13613072271520626
17.341276,4.37011490001858,0.13563361544346458
17.343663999999997,4.3782177466607335,0.13529785764015836
17.346044,4.386320593302887,0.1349599303124329
17.348439999999997,4.393352504758402,0.13465489324013194
17.350828,4.395169509907585,0.13449345466452226
17.353212,4.394193018377433,0.1343902738943818
17.355607999999997,4.390795117220284,0.13437503142443122
17.357996,4.38939931680955,0.13430873957055972
17.36038,4.384650941212041,0.13435021886980977
17.362783999999998,4.377760695241255,0.13445862834834682
17.365172,4.368728578897192,0.13463212574831926
17.367551999999996,4.360627628112908,0.13478645064155426
17.369948,4.346380605462512,0.1351115717048961
17.372335999999997,4.32412517982645,0.13563768492901965
17.374719999999996,4.304942790123443,0.1360814274181688
17.377116,4.285620630793576,0.13653328542360785
17.379503999999997,4.261735191463433,0.1371321476368261
17.381884,4.241342096946927,0.13761185832725886
17.384279999999997,4.2240220383634774,0.1380114748350459
17.386668,4.202697778287193,0.13851263226796817
17.389048000000003,4.179231647837631,0.1390889304428112
17.391444,4.162143906679658,0.13953753931964408
17.393831999999996,4.147989431827879,0.13991218407635292
17.396216000000003,4.1338349569761,0.1402868288330617
17.398612,4.125826553990433,0.14049523178139361
17.400999999999996,4.118749316564545,0.1406840776300563
17.403396,4.113813949511932,0.14080913353248306
17.405791999999998,4.107667877645822,0.14097887161441527
17.40818,4.1048743809664865,0.14103865655764986
17.410564,4.109949517645959,0.14090109581709548
17.412959999999998,4.118237459885347,0.14066694440920838
17.415348,4.127456567684514,0.14041398091855245
17.417727999999997,4.141750812163152,0.14002234083203766
17.420119999999997,4.156045056641791,0.13962332826099932
17.422508,4.171270466680207,0.1392101659579992
17.424888000000003,4.184773315225927,0.13882477549821146
17.427284,4.198695472652228,0.1383974897467438
17.429671999999997,4.210196220451532,0.13806253409291444
17.432056000000003,4.221976507504556,0.13770571125436462
17.434452,4.237621226423553,0.1372574918132125
17.436839999999997,4.257409916462245,0.13668663132659353
17.439236,4.270820217209347,0.13624443430784644
17.441632,4.28409074832959,0.13582173763334104
17.444020000000002,4.294567782770499,0.13545384018527723
17.446399999999997,4.303973882024768,0.13512309205834871
17.448796,4.316453017212092,0.13471528729713314
17.45118,4.330003087586057,0.13427913532511743
17.453559999999996,4.343972466840601,0.13380644991138763
17.455964,4.360083716468422,0.13328237966512146
17.458348,4.3732616997900475,0.13283468575714835
17.460732,4.382295711991979,0.13249473528083447
17.463127999999998,4.390678097887854,0.13215038026442677
17.465516,4.398269087850809,0.1318157187651657
17.4679,4.412006149679876,0.13133365810880318
17.470295999999998,4.426022750762662,0.13083646883161817
17.472684,4.4389684166588115,0.13036377137230623
17.475063999999996,4.4569892192344325,0.12977995118362928
17.477463999999998,4.473287460317358,0.12921014568504513
17.479852,4.486792204720947,0.1286916423908066
17.482231999999996,4.499226013937899,0.1282066066287988
17.484628,4.509797492035292,0.12775564498564854
17.487015999999997,4.523581775692603,0.12721693480501647
17.489412,4.529916734871685,0.12680729542676988
17.491808,4.544399866663297,0.1262096049576647
17.494196000000002,4.557812063268269,0.12564250125069826
17.496575999999997,4.56735982800727,0.12515807022345626
17.498976,4.575045261626712,0.12470754357322042
17.50136,4.582870464873014,0.12424723157858923
17.503743999999998,4.583618430693426,0.12394450879579615
17.506140000000002,4.5837147702077825,0.12363584669483389
17.508528,4.5883743897224125,0.12319677845907744
17.510908,4.591031908490625,0.12279913558117553
17.513303999999998,4.5927582616990605,0.12241867125896018
17.515692,4.586755751175548,0.12218459003449951
17.518076,4.576749039159202,0.12203387165666309
17.52048,4.571957233449189,0.12176188780075778
17.522868000000003,4.561019355873064,0.12162437879623714
17.525247999999998,4.557158715722829,0.12133861328566348
17.527644000000002,4.557022737811708,0.12099444063621666
17.530032,4.557585608034888,0.12059722422257776
17.532415999999998,4.560150579004484,0.12016088676689873
17.534812000000002,4.565509046653415,0.1196866489753429
17.5372,4.577385673220795,0.11910690374231413
17.539583999999998,4.582836688668344,0.11868381469588564
17.541980000000002,4.584702811503638,0.11830241143064296
17.544368,4.583216359152157,0.11800430919965105
17.546748,4.58545456903979,0.1176508874580219
17.549144,4.585411138927285,0.11735787064102543
17.551532,4.590954702173451,0.1169777334494025
17.553911999999997,4.594868251725536,0.11666679565399132
17.556312,4.594078751650488,0.11649108789487826
17.5587,4.597013913814552,0.11625860414849494
17.561079999999997,4.595665335232062,0.11612633753691236
17.563476,4.599763980381383,0.11591762080882949
17.565863999999998,4.606516352583178,0.11567601653273299
17.568247999999997,4.60791404885178,0.1155640242201833
17.570644,4.6091719754935205,0.11546216822878527
17.573031999999998,4.607077326948486,0.115449263365511
17.575412,4.602561268776456,0.11550900774153021
17.577816,4.597346362470122,0.11562265229103032
17.580204000000002,4.595856118402903,0.11567943778380037
17.582588,4.5902219032159906,0.11582123423755326
17.584984,4.586729558402355,0.11591356247927614
17.587372000000002,4.586310249521773,0.11594541273025272
17.589756,4.593200495492559,0.11588414434425688
17.592152,4.60409494295618,0.11574687883303678
17.594540000000002,4.611916354486745,0.11567227825982052
17.596919999999997,4.625324759375978,0.11552083246567224
17.599316,4.635008502026098,0.1154211111665909
17.601703999999998,4.646834115049496,0.11527372860187535
17.604087999999997,4.663874634379226,0.11501988006943462
17.606484000000002,4.681846319268734,0.11475901868974762
17.608871999999998,4.704893140837715,0.11439875871945465
17.611255999999997,4.729150667220194,0.1140128277838178
17.613652000000002,4.753268423975814,0.11363939842424294
17.616039999999998,4.780459216664489,0.1132060429625878
17.618436000000003,4.810723045286219,0.1127122404797998
17.620832,4.837122442041974,0.11227574539553602
17.623219999999996,4.864080917305172,0.11179727672567315
17.6256,4.887826587008453,0.11138519921860192
17.627995999999996,4.902632688166289,0.1111315582814896
17.630384,4.917438789324126,0.110876128144558
17.632764,4.928240688989128,0.11069497549108884
17.635168,4.935038387161296,0.11058543428741129
17.63756,4.94039306309449,0.11047247077708904
17.639940000000003,4.948681005333878,0.11031405152345566
17.642339999999997,4.956968947573266,0.1101556322698223
17.644728,4.9608806012674815,0.11003868367186628
17.647112,4.9717297227607276,0.10981051901937477
17.649507999999997,4.9819272179479155,0.10957524529771859
17.651896,4.989051677202048,0.10939694745337852
17.65428,4.994453574963484,0.10923387288989378
17.656675999999997,5.000926407911558,0.10905167599423711
17.659064,5.003395039366798,0.10893397969008531
17.661448,5.003349713396425,0.10882950951164111
17.663843999999997,5.004235552985828,0.10871484487163541
17.666232,5.0044697662691755,0.10859207729180713
17.668616,5.009779116231994,0.10838663200353957
17.671011999999997,5.015228235821674,0.10817236575097498
17.673403999999998,5.023518073918931,0.10786839978254396
17.675784,5.035160487202964,0.10748905217581632
17.678179999999998,5.048805001233413,0.10707850382660927
17.680568,5.062868824144443,0.10663765839020689
17.682952,5.082566862242387,0.10607779475664868
17.685352,5.098260698847497,0.10558237154415849
17.687739999999998,5.1115803476538515,0.10509540535613925
17.69012,5.12438813978101,0.10459002025956601
17.692515999999998,5.137195931908167,0.10408378088229286
17.694904,5.143625334743737,0.10364540179720641
17.697288,5.1504740464598875,0.10318020790957609
17.699683999999998,5.1569506711237,0.1026870398912191
17.702067999999997,5.157980072055703,0.10224153820826092
17.704451999999996,5.1555643500023125,0.10181734764568587
17.706848,5.152776540896585,0.10136292874181997
17.709235999999997,5.152689680671576,0.10083060388047523
17.711616,5.15129956783445,0.10028240716751073
17.714011999999997,5.149909454997326,0.09973495785140718
17.7164,5.1472160895480865,0.09917150011171218
17.718784,5.144802263352566,0.09859022361794924
17.721179999999997,5.140665875664348,0.09801662746781445
17.723568,5.143234638349683,0.09732246474562847
17.725948000000002,5.143708752489984,0.09660847216936334
17.728347999999997,5.147395672190201,0.09584514601851334
17.730736,5.144005354464527,0.09517655445728868
17.73312,5.143176215992713,0.09444477396452065
17.735515999999997,5.14169545121484,0.09370340905424779
17.737904,5.1424963264371035,0.09292087135700786
17.740284000000003,5.144927215353447,0.09208626574348842
17.74268,5.150291370575986,0.0912207602833352
17.745067999999996,5.1545845906118855,0.09037295845818173
17.747452000000003,5.158877810647785,0.08952441408135675
17.749848,5.168897793669215,0.08861842918649938
17.752235999999996,5.1827822085566195,0.0876782542588427
17.754620000000003,5.199599889750219,0.08671027870317957
17.757016,5.2149273268766,0.08578840716578184
17.759403999999996,5.228252663256563,0.08489002930460503
17.761784,5.2410661429573295,0.08397422108897594
17.764184,5.253739853031234,0.08307229945647318
17.766571999999996,5.263340527172083,0.0822056826924145
17.768952,5.271498179073958,0.08132025931874425
17.771352,5.263918564258217,0.08058199449488772
17.773739999999997,5.252614287203363,0.07985879058668044
17.77612,5.231998354550727,0.07918805632398951
17.778515999999996,5.209008234099335,0.07849545761306738
17.780907999999997,5.183736473647807,0.07783813837011155
17.783288,5.154972368382642,0.07723805882723271
17.785688,5.1209933568111445,0.07669878405874947
17.788075999999997,5.0835220004260115,0.07621680963662336
17.790459999999996,5.040044341801628,0.0757909026966269
17.792856,4.993353877617327,0.07540521063448791
17.795243999999997,4.944801082313472,0.07502347831008227
17.797627999999996,4.895456891076698,0.07463031497085337
17.800024,4.8394547712946165,0.07427540468669343
17.802411999999997,4.778517284459921,0.07395731472044313
17.804795999999996,4.716648632065449,0.07363776299739917
17.807192,4.653569274857477,0.07333585341403684
17.809579999999997,4.590442695821262,0.07309021562164254
17.811963999999996,4.52461516790433,0.07290812859033884
17.81436,4.4594392662934546,0.07273691093107032
17.816747999999997,4.400175223265344,0.07262539681442201
