Time,Force,Position
17.049083999999997,0.025611643202062485,0.0
17.051468,0.0300507237520259,0.0
17.053863999999997,0.03262747318243267,0.0
17.056251999999997,0.03476934355570973,0.0
17.058632,0.03677144430212658,0.0
17.061031999999997,0.04093098559836957,0.0
17.063419999999997,0.047092627641029415,0.0
17.0658,0.051252168937272406,0.0
17.068199999999997,0.0554117102335154,0.0
17.070587999999997,0.059291712276037974,0.0
17.072968,0.06009867838550516,0.0
17.075367999999997,0.0593998302512041,0.0
17.077751999999997,0.05884075174376326,0.0
17.080136,0.06028377398273927,0.0
17.082531999999997,0.05972469547529843,0.0
17.084919999999997,0.05823445140807927,0.0
17.087315999999998,0.061539804766611916,0.0
17.089716,0.06791819405819995,0.0
17.0921,0.0745761226035084,0.0
17.094483999999998,0.08337592152209392,0.0
17.09688,0.08710058376120719,0.0
17.099268,0.08882314525390363,0.0
17.101651999999998,0.09441013861257355,0.0
17.104048,0.10106806715788201,0.0
17.106436,0.10507226865071571,0.0
17.108819999999998,0.10721413902399277,0.0
17.111223999999996,0.1084248438374915,0.0
17.113612,0.11163764939740711,0.0
17.115992,0.11485045495732268,0.0
17.118388,0.11755140383804061,0.0
17.120776,0.12532748939823074,0.0
17.123155999999998,0.1258865679056716,0.0
17.125552,0.12551448085333414,0.0
17.12794,0.12270541399745008,0.0
17.130319999999998,0.11896518158178773,0.0
17.13272,0.1161561147259037,0.0
17.135108,0.10934284637718594,0.0
17.137487999999998,0.10145864284182965,0.0
17.139884,0.09250350411983485,0.0
17.142272,0.08247743021120152,0.0
17.144655999999998,0.07538462260876334,0.0
17.147047999999998,0.0692229805661035,0.0
17.149435999999998,0.06105923777702682,0.0
17.151819999999997,0.05196432942817181,0.0
17.154215999999998,0.04566291775865176,0.0
17.156603999999998,0.039361506089131706,0.0
17.158983999999997,0.03198915923297312,0.0
17.161383999999998,0.024616812376814536,0.0
17.163767999999997,0.017244465520655953,0.0
17.166151999999997,0.010663514597415482,0.0
17.168547999999998,0.0020804629277581576,0.0
17.170935999999998,0.0005746486839899186,0.0
17.173319999999997,0.0,0.0
17.175724,0.0,0.0
17.178107999999998,0.0,0.0
17.180487999999997,0.0,0.0
17.182883999999998,0.0,0.0
17.185271999999998,0.0,0.0
17.187655999999997,0.0,0.0
17.190051999999998,0.0,0.0
17.192439999999998,0.0,0.0
17.194836,0.0,0.0
17.197232,0.0,0.0
17.19962,0.0,0.0
17.201999999999998,0.0,0.0
17.204396,0.0,0.0
17.206784,0.0,0.0
17.209163999999998,0.0,0.0
17.21156,0.0,0.0
17.213948,0.0,0.0
17.216327999999997,0.0,0.0
17.218723999999998,0.0,0.0
17.221111999999998,0.0,0.0
17.223495999999997,0.0,0.0
17.225891999999998,0.0,0.0
17.228279999999998,0.0,0.0
17.230663999999997,0.002297210176686349,0.0
17.23306,0.004175111472792067,0.0
17.235447999999998,0.004175111472792066,0.0
17.237844,0.004175111472792067,0.0
17.240239999999996,0.004175111472792067,0.0
17.242628,0.006984178328676107,0.0
17.245008,0.007791144438143294,0.0
17.247404,0.007791144438143294,0.0
17.249792,0.007791144438143294,0.0
17.252171999999998,0.007791144438143294,0.0
17.254568,0.009669045734249013,0.0
17.256956,0.01261788221699326,0.0
17.259339999999998,0.013564617953320658,0.0
17.261736,0.013859727383590155,0.0
17.264128,0.013875297560139235,0.0
17.266507999999998,0.014961802923326842,0.0
17.268908,0.02005250977934815,0.0
17.271292,0.02393251182187072,0.0
17.273676,0.029814614610810142,0.0
17.276072,0.036767652586388096,0.0
17.27846,0.036488113332667674,0.0
17.280835999999997,0.03998045814630368,0.0
17.283244,0.04935490574887912,0.0
17.285628,0.05872935335145456,0.0
17.288007999999998,0.06703286576739145,0.0
17.290412,0.06987358427496956,0.0
17.2928,0.07499594278268495,0.0
17.295184,0.0758501307203953,0.0
17.297579999999996,0.07777525384474415,0.0
17.299971999999997,0.07956060734223282,0.0
17.302352,0.08039922510339408,0.0
17.304751999999997,0.07895620286441807,0.0
17.307136,0.08258831730491428,0.0
17.30952,0.08938601547708296,0.0
17.311915999999997,0.09874489290310931,0.0
17.314303999999996,0.10796400070227545,0.0
17.316684,0.1101058710755525,0.0
17.319083999999997,0.11252728070255,0.0
17.321468,0.1118756543964921,0.0
17.323852,0.10908215771715714,0.0
17.326255999999997,0.11043263215751611,0.0
17.328647999999998,0.10628866103782218,0.0
17.331028,0.09691421343524674,0.0
17.333423999999997,0.08753976583267133,0.0
17.335811999999997,0.07923625341673442,0.0
17.338195999999996,0.07358646805327225,0.0
17.340591999999997,0.06765714343608968,0.0
17.342979999999997,0.06737760418236925,0.0
17.34536,0.06545248105802039,0.0
17.347759999999997,0.06810620811049514,0.0
17.350147999999997,0.06903737367027346,0.0
17.352528,0.07532321516324443,0.0
17.354923999999997,0.07560275441696486,0.0
17.357311999999997,0.07350810587193095,0.0
17.359692,0.06820065176698145,0.0
17.362087999999996,0.06410390247553069,0.0
17.364476,0.06401135467691363,0.0
17.36686,0.0649897420649351,0.0
17.369255999999996,0.06610789907981678,0.0
17.371644,0.0684367609081972,0.0
17.374024,0.07192910572183321,0.0
17.37642,0.07965796945378019,0.0
17.378808,0.09280240526584281,0.0
17.381187999999998,0.10650402372747703,0.0
17.383595999999997,0.12150699894335781,0.0
17.385983999999997,0.1393469009510782,0.0
17.388364,0.16626234941536608,0.0
17.390759999999997,0.20111961714479062,0.0
17.393147999999997,0.2492119726270256,0.010567382047042304
17.395532,0.3008698588292261,0.0212807139740097
17.397927999999997,0.3646763274210495,0.03156361942336133
17.400312,0.4353239242975461,0.04147187461257465
17.402696,0.519098490951687,0.05113899996755036
17.405092,0.6105528036516626,0.06072538572888424
17.40748,0.7101987190766704,0.07036034957406528
17.40986,0.8108192301739613,0.08037729335363879
17.41226,0.9185604088096458,0.09037618764684774
17.414648,1.0371469172228374,0.10016638911238686
17.417032,1.1689529432122905,0.10977249830232907
17.419427999999996,1.3129075515913662,0.11922458893912169
17.421816,1.4673354026956114,0.12856984679106584
17.424196,1.628559056114156,0.13782840421255912
17.426595999999996,1.792808523637513,0.14698075095550248
17.428984,1.9660447815345592,0.1558429294995562
17.431375999999997,2.1446376112226666,0.1644722435671299
17.433784,2.3249567941192093,0.17289617577427632
17.436168,2.495036947573929,0.1813038213863513
17.438547999999997,2.6577187900944037,0.18959501516770036
17.440944,2.806996019441383,0.1872582019914225
17.443331999999998,2.9413783915476475,0.18494349900213217
17.445711999999997,3.0621691590253137,0.18308701757457646
17.448116,3.168669473740079,0.18167977437720595
17.450504,3.2626018971846413,0.18055944153668768
17.452883999999997,3.3457815386503134,0.17963163108124283
17.455288,3.4218405125775924,0.1786390057921133
17.457676,3.4967851212057277,0.17718438045628024
17.460055999999998,3.5650283711760498,0.1756688619765215
17.462452,3.622286521742005,0.17436203632443262
17.46484,3.665021902119583,0.17326927498713487
17.467219999999998,3.6921635771221455,0.17240982722082637
17.469624,3.7051545689886685,0.17173951504991214
17.472008,3.70902279257038,0.17110556537784138
17.474391999999998,3.7028824082778775,0.17067939433161833
17.476788,3.6833336190961408,0.17070169625101064
17.479176,3.6540538654360404,0.17110304917776048
17.481559999999998,3.6203506014025253,0.17169171882020523
17.483956,3.589021525167764,0.17222366073379047
17.486344,3.55792476635848,0.17278244791931424
17.488723999999998,3.525709850534315,0.17347461382791388
17.49112,3.5015958854944342,0.1739266660529065
17.493508,3.475851906760474,0.17451695074392187
17.495887999999997,3.4546239861985453,0.17495873090605696
17.498283999999998,3.4365616493682887,0.17533566948465407
17.500671999999998,3.423434679590644,0.17551008362577586
17.503055999999997,3.410307709813,0.17568307247812376
17.505452,3.3971807400353558,0.1758477791636269
17.507839999999998,3.3812130517501333,0.1761967621543824
17.510223999999997,3.3651055938380514,0.17656336730780503
17.51262,3.3520239500307802,0.17688175251433094
17.515007999999998,3.345180925888238,0.17699834427318856
17.517387999999997,3.344856060664144,0.17688082195276367
17.519783999999998,3.341690476932471,0.17694832589726323
17.522171999999998,3.341178620253273,0.17693138482988466
17.524551999999996,3.3438323473057485,0.17684217590765006
17.526951999999998,3.354075168463309,0.17645298509342883
17.529335999999997,3.363479371859709,0.17616573497737767
17.531719999999996,3.372464266375529,0.17593453098052625
17.534115999999997,3.378236355331433,0.17586094669403335
17.536499999999997,3.3909459120863654,0.17549813661796354
17.538895999999998,3.4043070951473564,0.1751435306573569
17.541292,3.4255369115671543,0.17446774902945417
17.54368,3.443274383173317,0.17397440554296723
17.546063999999998,3.4631537251527558,0.1733927688077448
17.54846,3.4867577293713086,0.1727120668972748
17.550848,3.5110133598959186,0.17203587881571253
17.553227999999997,3.5343378248607507,0.17140531889095548
17.555628,3.563576044266216,0.1704890418815594
17.558016,3.592302406992484,0.16955262888259004
17.560395999999997,3.620796452293274,0.16857710777124438
17.562791999999998,3.6458453746086716,0.16770703706483173
17.565179999999998,3.6690319658045127,0.16692040158843857
17.567563999999997,3.7023688303592976,0.1657728509340726
17.56996,3.7397098964069166,0.16450277589539697
17.572347999999998,3.781754012081671,0.16303221380798152
17.574727999999997,3.8203530047710323,0.16168110627627144
17.577128,3.86300342078147,0.16013260725494205
17.579515999999998,3.9074236201128474,0.15849855850639402
17.581899999999997,3.9571984953774177,0.1566772023710375
17.584296,4.00045521172354,0.15507432706495386
17.586683999999998,4.045341941763741,0.15341891902253563
17.589063999999997,4.085712613631911,0.15190144521273455
17.591472,4.131717500686994,0.15017427764541763
17.59386,4.178933092555575,0.14845061577662885
17.596239999999998,4.217628424759292,0.14696828779921087
17.598636,4.257814001030227,0.14543039512417338
17.601024,4.299350051741523,0.14385657876313604
17.603403999999998,4.3339486346537885,0.1424903383705403
17.605804,4.37176002312597,0.14103732704011754
17.608188,4.407429541224873,0.1396517692556072
17.610567999999997,4.447103260816611,0.13817945464488396
17.612968,4.487847915594989,0.13670075072532686
17.615351999999998,4.521794872201197,0.13542653960279538
17.617735999999997,4.554298806568429,0.13418477516387398
17.620131999999998,4.587082280189382,0.13295760833371156
17.622519999999998,4.621495767504413,0.13167488733901006
17.624903999999997,4.654466232580469,0.13042070633238778
17.627299999999998,4.68343249616369,0.12926482804714823
17.629687999999998,4.709465493440717,0.12818744018861422
17.632071999999997,4.732565224411549,0.12715365790369446
17.634468,4.752731689076184,0.126194806746636
17.636855999999998,4.7736895496737395,0.12523251484421455
17.639239999999997,4.7905034391516,0.12437424777344658
17.641636,4.798517529710875,0.12368717538645482
17.644023999999998,4.8106755913898445,0.12290332705242608
17.64642,4.820971321949256,0.12215673021118031
17.648815999999997,4.828194016575614,0.12148110709099796
17.651204,4.839281143067945,0.12073372200591939
17.653588,4.849297334373637,0.12002122720243767
17.655983999999997,4.864388662358801,0.11920991754203075
17.658375999999997,4.874265084037632,0.11851697982309026
17.660756,4.87999753459677,0.11791358054237029
17.663155999999997,4.880654848476436,0.11740654996062284
17.665543999999997,4.879170291982823,0.1169514434449111
17.667928,4.871819202876822,0.11660126472500418
17.670327999999998,4.857902733024129,0.11640512290530343
17.672715999999998,4.842216479850497,0.11628317416408673
17.675099999999997,4.829183953729339,0.1161305163566074
17.677495999999998,4.815080492421543,0.1159998650999721
17.679888,4.80949729077861,0.11573975006522107
17.682271999999998,4.800421744322042,0.11557039070692045
17.684668,4.793068759358172,0.11538517177756857
17.68706,4.788649040700496,0.11515078514131633
17.689439999999998,4.793960286521185,0.11475705491653346
17.691844,4.798200597155234,0.11438832341509382
17.694228,4.80416346928198,0.1140075150654178
17.696607999999998,4.811197276595364,0.11360437752029245
17.699004,4.819022479841666,0.11320334719818811
17.701392,4.821493007154777,0.11291219071279256
17.703771999999997,4.821402355214029,0.11269821869879669
17.706167999999998,4.8241051999526166,0.11244828268958725
17.708555999999998,4.832255268423013,0.11213880801054744
17.710935999999997,4.849205135811995,0.11169204562302211
17.71334,4.8668066295070345,0.1112557273549037
17.715723999999998,4.88692208062769,0.11080382376509505
17.718103999999997,4.913043833987595,0.11024815329229465
17.720499999999998,4.937954882534002,0.10972299614997419
17.722887999999998,4.960724060707132,0.10924315780863415
17.725268,4.983725556305739,0.10880112697367832
17.727672,5.00351424634443,0.10843247122508963
17.730059999999998,5.028238303435734,0.1079843956791958
17.732439999999997,5.049097928661064,0.10759347919485367
17.734835999999998,5.064882417206921,0.10728999984937138
17.737223999999998,5.074660603513528,0.10708922288042819
17.739603999999996,5.083507624260356,0.10690014357775099
17.741999999999997,5.087419277954573,0.10678718139193906
17.744387999999997,5.090771853141348,0.10671396074372644
17.746771999999996,5.09012022683529,0.10670541252204492
17.749163999999997,5.0962662987014005,0.10659844663537993
17.751551999999997,5.100689809074815,0.10650417605069437
17.753932,5.104182153888451,0.10642153586590428
17.756328,5.100225174223861,0.10642789954179468
17.758712,5.092403762693297,0.10648698913339075
17.761091999999998,5.081788854483397,0.10657919893144807
17.763499999999997,5.067728823288106,0.10669610104222602
17.765884,5.054739727279453,0.10678854043285148
17.768268,5.045242976084435,0.10679977796738874
17.770663999999996,5.038959030449333,0.10675003167086043
17.773048,5.034956724814369,0.10665079625795106
17.775427999999998,5.028300692126929,0.10657312669912877
17.777824,5.017919997200377,0.10653681677746984
17.780212,5.0106123382068795,0.10644995619427783
17.782608,5.010521686266133,0.10624304134479681
17.785012,5.00763753764605,0.10606567099904966
17.787395999999998,5.006475950518664,0.10587707683869715
17.789779999999997,5.008387399324333,0.10563673013916623
17.79218,5.008716056264165,0.10539711741059593
17.794567999999998,5.012257518763913,0.10509643898709162
17.796951999999997,5.011282923091631,0.10483940153810381
17.799348,5.011239492979126,0.10457157160063356
17.801731999999998,5.0142690987996765,0.10425553199209313
17.804111999999996,5.0213029061130605,0.1038763321032147
17.806507999999997,5.026474382306889,0.10351673498053882
17.808895999999997,5.034998433687492,0.10308717150197329
17.811279999999996,5.048318082493848,0.10259672662303256
17.813675999999997,5.055491659434093,0.10220756824313298
17.816059999999997,5.061454531560839,0.10185171022082408
17.818444,5.062342267008112,0.10157447733103438
17.820839999999997,5.057643009096716,0.10135640888685622
17.823224,5.057087722305013,0.10106974412273442
17.825608,5.059325932192646,0.10075298486976994
17.828011999999998,5.061564142080279,0.10043800251488345
17.830395999999997,5.058727215288439,0.10020164701870926
17.832776,5.0618965907358495,0.09987876084040273
17.835175999999997,5.064274570250341,0.0995569668302965
17.837563999999997,5.066652549764835,0.0992357032483381
17.839944,5.075176601145439,0.098823749455538
17.842339999999997,5.080627616592987,0.09845821857932155
17.844727999999996,5.087940963160093,0.09807365537678357
17.847112,5.093252208980781,0.09771548547275002
17.849507999999997,5.090555051815801,0.09746771390871925
17.851895999999996,5.087718125023962,0.09722943425887898
17.854291999999997,5.08595213341876,0.09697136038211998
17.856688,5.08297543700006,0.09674185289376135
17.859075999999998,5.076785935021445,0.09656773968569386
17.861455999999997,5.072738303416107,0.09635569022116172
17.863851999999998,5.0676197366241285,0.09616232501105369
17.866239999999998,5.071300968750738,0.09586210026470596
17.868623999999997,5.0829906038630135,0.09545556624885809
17.871019999999998,5.092398598975152,0.09509752390791065
17.873407999999998,5.103017298900791,0.09471614110210985
17.875787999999996,5.114846703639926,0.09431261818094319
17.878187999999998,5.128817978752339,0.09387586629537144
17.880575999999998,5.1438601890513915,0.09342969115165542
17.882955999999997,5.158622860096723,0.09300220014169258
17.885351999999997,5.175247862261612,0.09256265416412518
17.887739999999997,5.188520289239723,0.09218810753580269
17.890123999999997,5.2057969177106695,0.09176761970588057
17.892528,5.224935877301172,0.0913360205917243
17.894916,5.251431613571283,0.09080789533084326
17.897295999999997,5.286075522453923,0.0901777634451823
17.8997,5.320859200963423,0.08954110313604774
17.902088,5.35871591540598,0.08887178070336918
17.904467999999998,5.396712399475395,0.08819770666957769
17.906864,5.436059357985169,0.08749138784098051
17.909252,5.4795502876146385,0.08673916344881949
17.911635999999998,5.5221100516843284,0.08599375957196374
17.914032,5.554147455342736,0.08534507368359026
17.916415999999998,5.579759247881314,0.08479243652001162
17.918795999999997,5.602437774113695,0.08426488944240362
17.921196,5.622183034039881,0.08376886655780712
17.923583999999998,5.6385757187792915,0.08332851969380731
17.925963999999997,5.654968403518703,0.08289221563892205
17.928359999999998,5.664283850832224,0.08253310685660405
17.930747999999998,5.676020707772743,0.08213094701222312
17.933127999999996,5.687757564713262,0.08173309023916484
17.935523999999997,5.696840694601306,0.08134469036997292
17.937911999999997,5.705784054862491,0.08096856270628033
17.940292,5.713796249563897,0.08060107433750244
17.942691999999997,5.713520502025915,0.08032827207064376
17.945075999999997,5.709100783368239,0.08010209030457115
17.947456,5.705891769524062,0.07985503335893566
17.949872,5.701472050866386,0.07963008509888171
17.95226,5.695701857768351,0.07943356263001658
17.954639999999998,5.689791895043455,0.07924475684084634
17.957036,5.678946565265948,0.07909627542542877
17.959424,5.668241005115302,0.07893930767482965
17.961803999999997,5.664472912763683,0.07872345273314432
17.964208,5.662055294852425,0.0784779699512656
17.966596,5.664852583247499,0.07817611256693008
17.968975999999998,5.671514303508546,0.07784879511655421
17.971379999999996,5.68045766376973,0.0774888954931682
17.973768,5.689261254404054,0.07713916688704925
17.976152,5.705002312837407,0.07673342762079646
17.978547999999996,5.718601500897483,0.07635573797498682
17.980936,5.7295469619050845,0.07598575281374882
17.98332,5.741283818845603,0.07561774177889613
17.985715999999996,5.74808530873351,0.07528724622897516
17.9881,5.751022366755444,0.07498151815086547
17.990484,5.755030359964016,0.07466098057355508
17.99288,5.7588985835457285,0.0743473326731506
17.995268,5.761276563060221,0.07407051846041043
17.997652,5.762723377014935,0.07379891422457735
18.000048,5.766312061342927,0.07350325224300874
18.002436,5.767758875297641,0.07323108414326206
18.004815999999998,5.772138955558552,0.07293830030074483
18.007219999999997,5.77731043175238,0.07264898689746263
18.009607999999997,5.782202368692487,0.07237803216090298
18.011988,5.79030711119251,0.07207337935879027
18.014387999999997,5.7982720840656725,0.07177979059983114
18.016776,5.800370524326445,0.07152488613633129
18.019156,5.799395928654163,0.071296366578
18.021552,5.795488066675683,0.07108636775662792
18.02394,5.7875760032043715,0.07090667090259263
18.02632,5.7796639397330605,0.07072673588769852
18.028716,5.770401401821389,0.07057222502113071
18.031104,5.763280734282994,0.07039519126336352
18.033484,5.759233102677656,0.07019152545954532
18.035884,5.759189672565151,0.06995797578827063
18.038268,5.762079508758842,0.06970614538602166
18.040652,5.7655284234599735,0.06942336654115512
18.043048,5.768465481481907,0.06912100539484552
18.045436,5.771262769876982,0.06882659631307299
18.04782,5.773128892712276,0.06853643889904376
18.050216,5.779138986667266,0.06821067095375587
18.052604,5.785940476555173,0.06789167439322039
18.054984,5.795954772002996,0.06754340172840133
18.057384,5.801964865957984,0.06722280705253811
