Time,Force,Position
19.83696,0.00034036915677374484,0.0
19.839352,0.00034036915677374484,0.0
19.841736,0.00034036915677374484,0.0
19.844132,0.00034036915677374484,0.0
19.846524,0.00034036915677374484,0.0
19.848904,0.00034036915677374484,0.0
19.851304,0.00034036915677374484,0.0
19.853692,0.00034036915677374484,0.0
19.856072,0.00034036915677374484,0.0
19.858468,0.00034036915677374484,0.0
19.86086,0.00034036915677374484,0.0
19.86324,0.00034036915677374484,0.0
19.865636,0.00034036915677374484,0.0
19.868028,0.0,0.0
19.870408,0.0,0.0
19.872804,0.0,0.0
19.875192,0.0,0.0
19.877576,0.0,0.0
19.879972,0.0,0.0
19.882364,0.0,0.0
19.884744,0.0,0.0
19.887144,0.0,0.0
19.889532,0.0,0.0
19.891912,0.0,0.0
19.894308,0.0,0.0
19.896696,0.0015038521420293342,0.0
19.89908,0.003007704284058668,0.0
19.90148,0.004511556426088002,0.0
19.903868,0.005875638941257127,0.0
19.906248,0.006960182202705831,0.0
19.908644,0.006960182202705831,0.0
19.911032,0.006960182202705831,0.0
19.913416,0.006960182202705831,0.0
19.915812,0.008324264717874955,0.0
19.918204,0.008617412046405551,0.0
19.920584,0.00861741204640555,0.0
19.923,0.008910559374936145,0.0
19.925388,0.008910559374936143,0.0
19.927768,0.009203706703466739,0.0
19.930164,0.009203706703466737,0.0
19.932552,0.011359185151553973,0.0
19.934936,0.013514663599641208,0.0
19.937332,0.017672242794145296,0.0
19.93972,0.02010726049595295,0.0
19.9421,0.022682047824620813,0.0
19.944496,0.02117819568259148,0.0
19.946884,0.02252867012295043,0.0
19.949264,0.02387914456330938,0.0
19.951664,0.02550915825738875,0.0
19.954052,0.025556380085631904,0.0
19.956432,0.029621411481518933,0.0
19.958832,0.030613406944350573,0.0
19.961216,0.030613406944350573,0.0
19.9636,0.029249324429181447,0.0
19.965996,0.028956177100650855,0.0
19.968384,0.028956177100650855,0.0
19.970768,0.028663029772120263,0.0
19.973164,0.028663029772120263,0.0
19.975552,0.02836988244358967,0.0
19.977936,0.02836988244358967,0.0
19.980332,0.026214403995502435,0.0
19.98272,0.0240589255474152,0.0
19.9851,0.01990134635291111,0.0
19.987496,0.01746632865110346,0.0
19.989884,0.014891541322435597,0.0
19.992268,0.014891541322435599,0.0
19.994664,0.01203721474004731,0.0
19.997052,0.009182888157659023,0.0
19.999432,0.006188791948410528,0.0
20.001828,0.005537165642352628,0.0
20.00422,0.0014721342464656003,0.0
20.0066,0.00048013878363395505,0.0
20.008996,0.0004801387836339551,0.0
20.011384,0.0004801387836339551,0.0
20.013768,0.002031212753906441,0.0
20.016164,0.005724157097455987,0.0
20.018556,0.007275231067728473,0.0
20.020936,0.007275231067728473,0.0
20.023336,0.007275231067728474,0.0
20.02572,0.007275231067728474,0.0
20.028104,0.007275231067728474,0.0
20.0305,0.007275231067728474,0.0
20.032892,0.007275231067728474,0.0
20.035272,0.007275231067728474,0.0
20.037672,0.007275231067728474,0.0
20.04006,0.007275231067728474,0.0
20.04244,0.007275231067728474,0.0
20.044836,0.007275231067728474,0.0
20.047224,0.007275231067728474,0.0
20.049604,0.006795092284094519,0.0
20.052004,0.00679509228409452,0.0
20.054392,0.009035535099321841,0.0
20.056776,0.020398746199359778,0.0
20.059172,0.039813790397569784,0.0
20.06156,0.0713165870823493,0.0
20.063944,0.11003259910413958,0.012602978010315968
20.06634,0.16331860314255017,0.024048567351071002
20.068732,0.23230636428727292,0.03458639120394312
20.071112,0.3147931822619775,0.04453548006976525
20.073508,0.4155746544924156,0.053701973392289576
20.075896,0.5297154139259754,0.06263137959113205
20.07828,0.659497100562794,0.07121460572786156
20.080676,0.8069218151492883,0.07943194693881461
20.083064,0.9661702469013109,0.08749958307927827
20.085448,1.135659603953026,0.09546583107142638
20.08786,1.3153898863044338,0.10334224498883618
20.090248,1.5064320291421718,0.11109755069570604
20.092628,1.7055732269063248,0.1188607736365501
20.095028,1.9143037236641127,0.1265537700832143
20.097416,2.1324837497886744,0.1341954280280371
20.099796,2.3586702830410347,0.1417960538769479
20.102192,2.588248692807211,0.14938489409653605
20.10458,2.8113580613410516,0.15692370262097213
20.106964,3.031211194202472,0.1643509338831163
20.10936,3.2358427087412145,0.17179445721800607
20.111748,3.433028690517469,0.1665350765704734
20.114128,3.619044477292122,0.16233088089215922
20.116524,3.786440744586947,0.15905684253500665
20.118916,3.9335874787078646,0.15647007282052483
20.121296,4.05755141334868,0.15472839901240343
20.123692,4.16592164261448,0.15323754821557997
20.12608,4.255997217624546,0.15214442113084892
20.12846,4.3277781383788785,0.15141366790114938
20.13086,4.392251400139713,0.15073903805389866
20.133248,4.450860025146027,0.15008788417774088
20.135628,4.5014621430245425,0.14951435934781837
20.138028,4.54568776746934,0.14894167576129044
20.140416,4.581302480308523,0.1483453879056685
20.142796,4.606955807101735,0.1477920163027451
20.145212,4.622275660796639,0.1472466603816557
20.1476,4.628705063632208,0.1466986844818564
20.14998,4.626616102660782,0.14616758760018445
20.152376,4.618707830905209,0.1457155434464647
20.154764,4.604421169858047,0.14538989332496038
20.157148,4.5927882358633605,0.1450166262909837
20.159544,4.580037144853793,0.14473599525726058
20.161932,4.565469048695041,0.1446052228046698
20.164312,4.558675142238611,0.1444109196684738
20.166708,4.563939166231056,0.14402993529510275
20.169096,4.57395156582101,0.14359788567917633
20.17148,4.587129549142636,0.1431339472476899
20.173876,4.603380568397317,0.1425843679522098
20.176264,4.618840191719081,0.14204010334114056
20.178648,4.62633863388342,0.14163944988893742
20.181044,4.626946830076972,0.14134933616338438
20.183432,4.624017355486516,0.1410619928467429
20.185812,4.611356916417694,0.14100357208747333
20.188212,4.601210434774489,0.14090961116852294
20.190596,4.591947896862819,0.1408595681976118
20.192976,4.585012324921659,0.14085003054459477
20.195372,4.5801241796972905,0.14090506538002953
20.197764,4.5823585978691845,0.14089542517177078
20.200144,4.591343492385004,0.14079467048629032
20.202544,4.605123984326575,0.14059168201686745
20.204932,4.614248648469255,0.14047993102938997
20.207316,4.623001225559598,0.14034132739530222
20.209712,4.631661254851323,0.14015022393303259
20.212104,4.640368505971291,0.13990233931681378
20.214484,4.6429769070533915,0.13974873643467373
20.216884,4.649589509628326,0.1395043097291834
20.219272,4.654339781083705,0.13929488363065012
20.221656,4.662115866643894,0.13907462534803083
20.224056,4.671567291868538,0.1388903129157715
20.226444,4.687908963063967,0.13861180894191588
20.228824,4.707276448364208,0.1383164895321748
20.231224,4.729529978142402,0.13801951638857482
20.233612,4.758441436465904,0.13758189702751836
20.235992,4.786281959602768,0.13717968654453375
20.238392,4.81589226606057,0.13669852652401024
20.24078,4.847272355839312,0.1361439708926732
20.24316,4.878839437073158,0.13552331572373
20.245576,4.906169999388692,0.1349622422096757
20.24796,4.929775899465115,0.13447335414646644
20.250356,4.947887353981483,0.13413216275808035
20.252752,4.975962090401693,0.13363804482571287
20.25514,5.00398960499366,0.13320334220803956
20.25752,5.035042933690439,0.13276001597932394
20.259916,5.062324378319862,0.13244413635807165
20.262304,5.093190715561536,0.13207936572510132
20.264684,5.120332390564099,0.13178425599838908
20.267088,5.152409432619273,0.13139771394442104
20.269476,5.1783876246365805,0.13108767122182874
20.271856,5.204692577735851,0.13070135165756444
20.274248,5.225038450424113,0.13038122341549188
20.276636,5.245291775313759,0.1300161877398969
20.27902,5.26303114277779,0.12967605341705254
20.281416,5.278116783189347,0.12937205887726624
20.283804,5.290269157294708,0.12912175581039279
20.2862,5.300791517705989,0.12893932380798429
20.288596,5.305819432557219,0.12889136941009355
20.290984,5.310148499274147,0.12889399987178954
20.293364,5.312615234871518,0.12892574053357614
20.29576,5.315221740095749,0.12894738918893928
20.298148,5.321041050879896,0.12889415149007352
20.300528,5.31889918050662,0.1289431627423573
20.302928,5.313591726401671,0.12901140566968364
20.305312,5.303256357445493,0.1291283011405167
20.307692,5.29054680069056,0.12926201341050017
20.310084,5.273181416136735,0.12946995121147223
20.312472,5.251532290836356,0.12978418132665573
20.314868,5.225599424789424,0.1301945270682404
20.317268,5.204182616914522,0.13054038867826778
20.319656,5.183929292024877,0.1309029399862011
20.322036,5.1646996804936265,0.13130232330357514
20.32444,5.1455626167609925,0.13174638042669598
20.326828,5.130429754521193,0.132106690417095
20.329208,5.119812950453425,0.1323996933737653
20.331612,5.114271283065129,0.13258830286548468
20.333996,5.108497298251355,0.13274094779721335
20.33638,5.107286593437856,0.13277546373311447
20.338776,5.1057038015720195,0.13278457836098476
20.341164,5.107054276012379,0.13274012366803917
20.343544,5.108824059333319,0.13266591595880198
20.345948,5.109802446721341,0.13259641829995455
20.348332,5.114225957094755,0.13248937460388546
20.350716,5.12451600008056,0.13227675049028637
20.353112,5.140393036425034,0.13197877606751235
20.3555,5.160274274262342,0.13160217250120476
20.35788,5.185090879152263,0.13113622138166195
20.360276,5.219126591841349,0.13048309596455374
20.362664,5.2497171815450425,0.12985837902153208
20.365044,5.2795163753158185,0.1292447348539664
20.367444,5.307732777220758,0.12864370648312912
20.369828,5.340791998379691,0.12791035146649238
20.372208,5.372687736553369,0.12715536393683993
20.374604,5.4004395036073545,0.12649159098754995
20.376992,5.421533342116032,0.12593727739358812
20.379376,5.439554144691652,0.12544948410839304
20.381772,5.457155638386692,0.12499212614970469
20.38416,5.4714045568949565,0.12461648408802116
20.38654,5.484442770589722,0.12427351498680332
20.388936,5.497341214657627,0.12394232761806533
20.391324,5.510891285031591,0.12361904187285083
20.393708,5.526443456151971,0.1232624528390741
20.396104,5.541483770593154,0.12289460794326161
20.398492,5.551868257235445,0.122593840473134
20.400876,5.559087160146063,0.12230961790975785
20.403272,5.568308163803099,0.12199477050368461
20.405656,5.572733570034383,0.12175232867771518
20.408052,5.568359177347081,0.12164850831140898
20.410448,5.567849216525753,0.12148553590056427
20.412836,5.5665478597715055,0.12132600762477137
20.415216,5.564594876711201,0.12116015777058249
20.417612,5.56050002327762,0.1210374856193422
20.42,5.5594782057770935,0.12086107772600727
20.422384,5.559155236410869,0.120638787516108
20.424788,5.56232461185828,0.12033413195263298
20.427176,5.56698423137291,0.11998237631873165
20.42956,5.568058958275286,0.11966672443796256
20.431956,5.570763698871743,0.11929305299451044
20.434344,5.576821014654975,0.11884858625291476
20.436724,5.582506243385869,0.11838119853632657
20.43912,5.586329140997209,0.11793762042749698
20.441508,5.585496210809656,0.11755217501233989
20.443892,5.580659079129268,0.11723059151116792
20.446288,5.575542408195162,0.11692557481634999
20.448676,5.567724788380336,0.1166978983694112
20.451056,5.55390086632626,0.11656839832207613
20.453452,5.5430102105783785,0.11639382159724304
20.45584,5.536263525950192,0.1161432358863498
20.45822,5.530867315762364,0.11585325566364818
20.46062,5.527752745574672,0.11551336261921208
20.463008,5.5242188665064,0.11520008530924207
20.465388,5.5168205555721554,0.11494150603268136
20.467784,5.5060696694511355,0.11475405886761994
20.470172,5.496761805569091,0.11457061629000297
20.472552,5.487034632806465,0.11441399221188504
20.474952,5.475025820043702,0.11430646133587441
20.477336,5.4676728350798305,0.11414237145264321
20.479736,5.461902641981796,0.11397402078411008
20.482132,5.4527798736969855,0.11387475281602659
20.484516,5.444168962091372,0.11379099462697716
20.4869,5.438351547165094,0.11367460263382831
20.489296,5.436910420783988,0.11352200672190396
20.49168,5.439054187015134,0.11333458708562982
20.49406,5.446133320298892,0.11307579816184657
20.49646,5.458287590262123,0.11273552783442206
20.498848,5.470441860225352,0.11239033718887445
20.501228,5.479523094255528,0.11209626512821307
20.503632,5.4881850194051225,0.11183019037388746
20.506016,5.493214830114221,0.11165151631332357
20.5084,5.490468555263128,0.11163161245242255
20.510796,5.489444841904733,0.11159876626062004
20.513184,5.491074855598813,0.11154150971739746
20.515564,5.492565099666032,0.11149320493616191
20.51796,5.488049041494001,0.11154108216816726
20.520348,5.480459947388915,0.11164300525850822
20.522744,5.473802018843607,0.11173337880547014
20.52514,5.470356895858214,0.11175988425207133
20.527528,5.46062593137985,0.11190159574576257
20.529908,5.450894966901486,0.1120442171531767
20.532304,5.4372995705571485,0.11224306259936687
20.534692,5.420770907906616,0.11248480230266307
20.537076,5.398515482270552,0.11280750151601163
20.539472,5.375608430328431,0.11312089879069241
20.54186,5.34669507614706,0.11353129804232198
20.54424,5.3124270460324965,0.11404920360068062
20.54664,5.282814843716825,0.11451029623008355
20.549024,5.2530628717742935,0.11498750874688698
20.551408,5.226104396511097,0.11542503151639798
20.553804,5.203429661994454,0.11577780390759902
20.556192,5.187040768970782,0.1160174276725686
20.558572,5.169208853708133,0.11625171765406456
20.560976,5.1532392695650415,0.11646084601091208
20.563364,5.1354073543023935,0.11669755837059627
20.565748,5.124652676465634,0.11681344375682638
20.568144,5.120975236054764,0.11680597346601829
20.570532,5.116087090830395,0.11682989796078948
20.572912,5.102631464112917,0.11702734154712559
20.575312,5.094250974074911,0.11713733798958553
20.577696,5.087872584783323,0.11721301499954191
20.58008,5.083076987357573,0.11728492202089136
20.582476,5.077210454745182,0.11738014983220103
20.584864,5.078001850678101,0.11737741755059003
20.587244,5.07623206735716,0.11744992806739385
20.58964,5.079257881461971,0.11744855612319302
20.592028,5.088569537059754,0.1173200379263981
20.594412,5.09695002709776,0.1172056434619551
20.596808,5.10826378344196,0.11704230522019617
20.599196,5.117994747920323,0.11688720381669056
20.601592,5.124652676465633,0.11679014495575435
20.603988,5.130239669824302,0.11671577463089507
20.606376,5.133545023182836,0.11669519329539739
20.60876,5.133125714302254,0.11672482647975177
20.611156,5.1347085061680895,0.11671924547095912
20.613544,5.134149427660649,0.11675890670455856
20.615928,5.130377543593292,0.1168644592196778
20.618324,5.132611961765187,0.11686686733184606
20.620712,5.143274091803328,0.11670395107147397
20.623092,5.156078092214749,0.1165004886460927
20.625488,5.167811157439528,0.1163194709489408
20.627876,5.179963531544889,0.11610807090202965
20.630256,5.1991931430761404,0.1157778628225702
20.63266,5.214837861995138,0.1154876410039439
20.635048,5.233835156100912,0.11512201955080227
20.637428,5.253111989460406,0.1147425729558426
20.639824,5.270246952446622,0.11441000115789983
20.642212,5.287381915432839,0.11407931632087157
20.644596,5.308660849538748,0.11368331229510098
20.646992,5.326866747711603,0.1133388474556334
20.64938,5.349076847377293,0.11293482410139612
20.65176,5.3720783429758985,0.11252967304245319
20.654164,5.400806601560036,0.11204878706815932
20.656552,5.431397191263729,0.11154284819866188
20.658932,5.467994083206674,0.11095165828826242
20.661336,5.506453306269174,0.11034214192358265
20.663724,5.542119032652341,0.10976361592701529
20.666104,5.570987060863337,0.10928495837139407
20.6685,5.593848786835085,0.10890123240721408
20.670888,5.611775145754219,0.10858977086639393
20.673268,5.63277454060641,0.10823284740234715
20.675664,5.65950069844413,0.10781135803390772
20.678052,5.68036032366946,0.10747381075213346
20.680432,5.705084380760763,0.10709131128015012
20.682828,5.729948207478928,0.10670367106539481
20.685216,5.753601329383593,0.10634690042043635
20.6876,5.777813529795698,0.10595964779980799
20.690004,5.801374103901745,0.10556668410001205
20.692392,5.819207915022262,0.10524350692724527
20.694772,5.840906158008752,0.10487556684432582
20.697168,5.858600199502409,0.10456336883425017
20.699556,5.877924254690146,0.10420388384145954
20.701936,5.89380318689249,0.10386567724335026
20.704332,5.911963759094971,0.1034876840439487
20.70672,5.926259899431479,0.10315867656548292
20.709104,5.938973247902149,0.10283228928876366
20.711508,5.955690797865654,0.10245663587865853
20.713896,5.976272779695133,0.10203962120559927
20.716276,6.0007191933905855,0.10158129744483604
20.718672,6.028098873392232,0.10108896743841798
20.72106,6.052405517460825,0.10064209935522657
20.72344,6.070985398543886,0.1002574715021065
20.72584,6.0903566755598675,0.09987217013691234
20.728228,6.105723751083013,0.09953742830323946
20.730608,6.122161761792797,0.09919039264378066
20.733012,6.137156750263605,0.09883635647457044
20.735396,6.149590559480557,0.09853812756704572
20.737776,6.162955534257287,0.09823366976286914
20.740184,6.177111904966933,0.09792940753531995
20.742572,6.188474778997247,0.097649324561316
20.744952,6.202259062654557,0.0973236092067093
20.747348,6.210968209632395,0.0970597613652602
20.749736,6.223821327729926,0.09674512141761346
20.75212,6.2326702443346225,0.09647641165887995
20.754524,6.239517060192904,0.09623061068720133
20.756912,6.249297142357381,0.09595757304839286
20.759292,6.25707512377544,0.09570799662038186
20.761688,6.259126342207969,0.09550818419537731
20.764076,6.257592668028245,0.09532936077400736
20.766456,6.254476201982684,0.09514947762221135
20.768852,6.248845778511511,0.09497484304981672
20.77124,6.243355124667197,0.09479205080573906
20.773624,6.236002139703325,0.09462309395049631
20.77602,6.228788924366315,0.09444602277572911
20.778408,6.214358701976554,0.09435762423302194
20.780788,6.202582206639269,0.09425473376637131
20.783188,6.1910852505557035,0.09413629737348879
20.785572,6.1785173592855,0.09403238898455543
20.787956,6.165669928761576,0.09394394167454301
20.790352,6.15468482935721,0.09384105059734572
20.79274,6.142069716258764,0.09378336370467284
20.79512,6.1331792653994315,0.09369735398579493
20.797516,6.119585764912963,0.09369272613899852
20.799904,6.109065300359549,0.09365142981840133
20.802288,6.099615770992775,0.09359523474829327
20.804684,6.08402016975989,0.0936108272631559
20.807072,6.0674934029672265,0.09363310092726373
20.809452,6.053899902480759,0.09362760789017475
20.811848,6.0418891938601265,0.09362363198113835
20.814236,6.029598945985774,0.09363486802860682
20.81662,6.019031259604118,0.09364004538537066
20.819016,6.007113098782105,0.09367613151456507
20.821404,5.996405642773588,0.09368957983929589
20.823788,5.986769121951711,0.09368775802495867
20.826184,5.9842098385557225,0.09360446166245717
20.828572,5.9765754184802615,0.09358069115899618
20.830952,5.971874264710996,0.09352737020887433
20.833352,5.966381715008812,0.09347302108966528
20.83574,5.958514977507874,0.09341604114494381
20.838136,5.946783808140963,0.0933956051848587
20.840532,5.934121473214272,0.09338280058852931
20.84292,5.9225300734742214,0.09335403498176832
20.845304,5.909216112241475,0.09333254430755278
20.8477,5.896414007687924,0.09332694372494163
20.850092,5.882261428694015,0.09335240699059126
20.852472,5.874115151939357,0.09331102311848119
20.854872,5.867970975931115,0.0932472278115648
20.85726,5.862757965482652,0.09317620409641399
20.85964,5.858755659847688,0.09308220661743534
20.86204,5.855404980518781,0.09299700094743904
20.864428,5.8539166323094305,0.09289772634573076
20.866808,5.855361550406276,0.09276919349525198
20.869208,5.859460195555597,0.09262802609217223
20.871592,5.864210467010974,0.09249622680542004
20.873976,5.868960738466352,0.09236584112770632
20.876372,5.874642175481507,0.09222703848811524
20.87876,5.87617964137697,0.0921397965626522
20.881144,5.880231064698048,0.09204802061592114
20.883536,5.886656675817878,0.09195884511145336
20.885924,5.900019754736738,0.09179842416906
20.888308,5.912870976976402,0.09162000791489688
20.890704,5.920507292909732,0.09150773444875226
20.893092,5.934010141455452,0.09133791067916905
20.895476,5.943369018881478,0.09121929400987092
20.897872,5.954729997053921,0.09107855193169455
20.90026,5.960084672987113,0.09100378993059063
20.90264,5.961947004106671,0.09098978839623269
20.905036,5.965671666345783,0.09096207495777717
