Time,Force,Position
18.212212,0.025044816963091698,0.0
18.2146,0.023307392312985818,0.0
18.21698,0.020638802103101612,0.0
18.219376,0.020638802103101612,0.0
18.221764,0.020638802103101612,0.0
18.224148,0.020638802103101612,0.0
18.226544,0.020638802103101612,0.0
18.228932,0.020638802103101612,0.0
18.231312,0.020638802103101615,0.0
18.233708,0.020638802103101615,0.0
18.236096,0.020638802103101615,0.0
18.23848,0.020638802103101615,0.0
18.240876,0.020638802103101615,0.0
18.243264,0.01834229894555489,0.0
18.245648,0.01834229894555489,0.0
18.248044,0.015766256534287745,0.0
18.250432,0.01332998374988081,0.0
18.252812,0.009822775778835346,0.0
18.255216,0.0035220711284549185,0.0
18.257604,0.002296503157546725,0.0
18.259984,0.0,0.0
18.26238,0.001969742075583153,0.0
18.264772,0.006872750457361477,0.0
18.267152,0.012567154772057911,0.0
18.269548,0.019192724646532665,0.0
18.271936,0.026749460080785742,0.0
18.274316,0.037239461821233985,0.0
18.276712,0.04758969393482203,0.0
18.2791,0.05393572455557636,0.0
18.281484,0.060141985549470485,0.0
18.28388,0.06234404505053091,0.0
18.286264,0.06234404505053091,0.0
18.288644,0.06234404505053091,0.0
18.291048,0.06234404505053091,0.0
18.293436,0.06234404505053091,0.0
18.295816,0.06234404505053091,0.0
18.298216,0.06234404505053091,0.0
18.300604,0.06234404505053091,0.0
18.302988,0.06234404505053091,0.0
18.305384,0.06234404505053091,0.0
18.307772,0.06234404505053091,0.0
18.310152,0.06037430297494776,0.0
18.312552,0.05547129459316944,0.0
18.31494,0.04977689027847301,0.0
18.31732,0.043151320403998245,0.0
18.319716,0.03559458496974517,0.0
18.322108,0.02510458322929692,0.0
18.324488,0.014754351115708882,0.0
18.326884,0.008408320494954546,0.0
18.329272,0.0050104193378048365,0.0
18.331656,0.00948115153946232,0.0
18.334056,0.01936674880209582,0.0
18.336444,0.029112576437869103,0.0
18.338828,0.03899817370050261,0.0
18.341224,0.045950504656940935,0.0
18.343612,0.05290283561337926,0.0
18.345996,0.0607863321295959,0.0
18.348392,0.06494516640669927,0.0
18.35078,0.06494516640669927,0.0
18.353164,0.06494516640669927,0.0
18.35556,0.06494516640669927,0.0
18.357948,0.06494516640669927,0.0
18.360332,0.06494516640669927,0.0
18.362728,0.06547188624330641,0.0
18.365116,0.06599860607991355,0.0
18.3675,0.06624578666280027,0.0
18.369896,0.06624578666280027,0.0
18.372284,0.06624578666280027,0.0
18.374668,0.06624578666280027,0.0
18.377064,0.06343742682605587,0.0
18.379456,0.05676463512333796,0.0
18.381836,0.046879037860704464,0.0
18.384232,0.03713321022493118,0.0
18.38662,0.02724761296229768,0.0
18.389,0.02029528200585935,0.0
18.391396,0.013342951049421023,0.0
18.393784,0.005459454533204375,0.0
18.396168,0.001300620256101008,0.0
18.398564,0.0021994271450456303,0.0
18.400952,0.004169169220628783,0.0
18.403332,0.007209846482850466,0.0
18.405732,0.007209846482850466,0.0
18.40812,0.007457027065737189,0.0
18.410504,0.006930307229130046,0.0
18.4129,0.006790537602269837,0.0
18.415288,0.006543357019383114,0.0
18.417668,0.006543357019383114,0.0
18.420068,0.006543357019383114,0.0
18.422456,0.006543357019383114,0.0
18.424852,0.006543357019383114,0.0
18.427248,0.006543357019383114,0.0
18.429632,0.006543357019383114,0.0
18.432012,0.006543357019383114,0.0
18.43442,0.0065433570193831146,0.0
18.436804,0.0065433570193831146,0.0
18.439184,0.0065433570193831146,0.0
18.44158,0.0065433570193831146,0.0
18.443968,0.006543357019383115,0.0
18.446348,0.005644550130438492,0.0
18.448744,0.003674808054855339,0.0
18.451132,0.0006341307926336552,0.0
18.453512,0.0006341307926336552,0.0
18.455912,0.0003869502097469327,0.0
18.458296,0.0003869502097469327,0.0
18.460692,0.0,0.0
18.463088,0.0,0.0
18.465476,0.004483699501197695,0.0
18.467856,0.01110926937567245,0.0
18.47026,0.020528335929482167,0.0
18.472648,0.032740899162626846,0.0
18.475028,0.04439438388833068,0.0
18.477424,0.05441785491995514,0.0
18.479816,0.06681551375033395,0.0
18.482196,0.08037665556596833,0.0
18.484592,0.09403034518021977,0.0
18.48698,0.10884751777972682,0.0
18.48936,0.12254653336435219,0.0
18.49176,0.1400627589867079,0.0
18.494148,0.16311875613949037,0.0
18.496528,0.19078335926292128,0.0
18.498928,0.2217060939166417,0.0
18.501316,0.25374508972737453,0.0
18.503696,0.2831756844560066,0.0
18.506092,0.3197288425809016,0.0
18.50848,0.3586089666763078,0.0
18.51086,0.3986053519287265,0.0
18.513256,0.43309242846368273,0.0
18.515644,0.46720552208843236,0.0
18.518024,0.5022951072433341,0.009870181278154866
18.52042,0.5383611839283883,0.019707233839904317
18.522808,0.580758428076787,0.029203642949312804
18.525188,0.6301384659945888,0.03857652807364686
18.527588,0.6844991969353763,0.04760960925848015
18.529976,0.7474255135114031,0.05625299626782073
18.532372,0.8169153149762518,0.06486348291451778
18.534768,0.8937599972628408,0.0733202951758155
18.537152,0.983314236304363,0.0814334516485744
18.539536,1.0762663765030345,0.08945086187255495
18.54194,1.1667498852464655,0.09764030027238182
18.544328,1.2559754673481547,0.10594349494213517
18.546708,1.3457129061290418,0.11428239411607727
18.549104,1.4403857119625405,0.12249886576383903
18.551492,1.5454411085804614,0.13054616859640078
18.553872,1.6444902029591315,0.1387278387849973
18.556268,1.7451220892036376,0.1469232282461132
18.558656,1.848827011381199,0.15509184008518506
18.56104,1.9644047684104016,0.1629744597689039
18.563436,2.0842662661861584,0.1707776786694765
18.565824,2.203615907282717,0.16872797539283493
18.568208,2.324595562073356,0.16663500822139607
18.570604,2.4424096331323217,0.1648967453760592
18.572988,2.5560344071012198,0.16330502597913962
18.575372,2.660674286554298,0.16216392815982747
18.577768,2.7537227662673254,0.1614728746883064
18.580156,2.842536622919911,0.16068896530829763
18.58254,2.92432235983272,0.1599649535734117
18.58494,2.9902801780871666,0.15968192655381946
18.587324,3.048371258840675,0.1594913942669959
18.589704,3.1078147098924123,0.1589309306332969
18.592108,3.16469887754816,0.15824464995806228
18.594496,3.2213979496066742,0.1574287018892036
18.596876,3.2736281853214,0.1567126942203344
18.599276,3.3176649224532246,0.15621218631273212
18.60166,3.360026319920596,0.15563942526087055
18.604044,3.4022026217907335,0.15494612083743867
18.60644,3.4400498569439426,0.1542947815381765
18.608824,3.4663982401557174,0.1539252776648472
18.611208,3.488045469598227,0.15356362674620175
18.613612,3.5077850419508065,0.15311422145411302
18.616,3.518819259041286,0.15279837120221929
18.61838,3.5256641790416974,0.15249013755731244
18.620776,3.5313456160568535,0.15215888444906273
18.623164,3.5407989371393658,0.15163438039672347
18.625548,3.550112488595018,0.15111658355072516
18.627944,3.5556541559833144,0.15079740696301236
18.630328,3.5575637089311143,0.15065772547324607
18.632712,3.5634302415435037,0.15045235808333202
18.635108,3.571019335648591,0.1502068620620067
18.637496,3.5701807178874296,0.15030358336761004
18.639892,3.57018071788743,0.15030358336761007
18.642288,3.5662237382228392,0.15036159720260397
18.644672,3.560172110013215,0.15042197715303746
18.647056,3.557240739564889,0.1502867721075406
18.64946,3.555427526131445,0.15002712838588775
18.651844,3.5452338226599958,0.15000872702014764
18.654224,3.5363905936289055,0.1499158176799524
18.656624,3.5261968901574567,0.14989798971677695
18.659012,3.5126506114992315,0.15002431766005914
18.661392,3.499476419893344,0.1501808794639916
18.663788,3.4930527046313817,0.15020214929426592
18.66618,3.49207621310123,0.15008040877009177
18.66856,3.4952436926907713,0.14981262507470663
18.670956,3.497340237093675,0.14958809790839878
18.673344,3.505582853362689,0.14915864342629329
18.675724,3.514664087392864,0.14863610041976077
18.678124,3.526166731050036,0.14799910118505674
18.680512,3.5382284532146495,0.14730180690759612
18.682892,3.5462859738864294,0.1467311140802051
18.685296,3.5567649041852065,0.14603370117477146
18.687684,3.565194511909324,0.14548937858919267
18.690064,3.575578998551615,0.14496298925187406
18.69246,3.5871269681791613,0.1444624325620974
18.694848,3.5956944496722696,0.14414040377045534
18.697232,3.6054254141506337,0.14384821885876875
18.699628,3.622605703107224,0.14335263467367215
18.702016,3.642160179862569,0.14284141532577954
18.704396,3.6674414196034437,0.1421734624849577
18.706792,3.6993805878896273,0.14133012066777642
18.70918,3.725732762817141,0.14062239424156622
18.711564,3.7485000451324018,0.14000633465833526
18.71396,3.7663319603950494,0.1395463477836306
18.716348,3.780019904538004,0.13923240408013685
18.718728,3.7947787838675966,0.13888853383990735
18.721132,3.8052539224506354,0.1386959922981759
18.72352,3.8190344143922066,0.13846212698363008
18.7259,3.835840720438591,0.13821646076825359
18.7283,3.856464236522705,0.13795376314964325
18.730688,3.8841177682044647,0.13756392757833447
18.733068,3.919313172163068,0.13707850412709913
18.735464,3.9578611513084474,0.13648443908918584
18.737856,3.9936156337744917,0.1359495120274814
18.740236,4.030860360307756,0.13535061138162263
18.742632,4.071178122774074,0.1346718707385894
18.745024,4.10763145337442,0.13408265347147694
18.747408,4.140220352108792,0.1335913527544469
18.749804,4.165359926364937,0.1332572674123364
18.752188,4.185703903195331,0.13303913706394221
18.754572,4.199389951480416,0.13297266185047807
18.756968,4.219733928310809,0.13275602247852122
18.759356,4.241288609954702,0.13249583813753946
18.76174,4.265636788277929,0.13217750392945724
18.764136,4.290357053653494,0.1318892701617225
18.766524,4.310374269401923,0.13176627047948156
18.768908,4.3301119458966335,0.13166628362743743
18.771304,4.3475679823912055,0.13164585669991585
18.773692,4.3609272695943275,0.1316723496189569
18.776072,4.369538181199939,0.13173870075689398
18.778472,4.371398616461628,0.13189320823928108
18.78086,4.363994617953775,0.13216533090568294
18.78324,4.3527261875799494,0.1325214204200927
18.78564,4.342808231646481,0.13282367936216988
18.788028,4.332610736459293,0.13314524399612604
18.790408,4.31947997496591,0.1335299454347687
18.792804,4.3146371557119165,0.13369574658083788
18.795192,4.312727602764116,0.13379665156480475
18.797572,4.3184071439214025,0.1337451768139761
18.799968,4.3230157498920505,0.1337220915314826
18.802356,4.330697391795755,0.1336207230202764
18.804756,4.335865076273843,0.13355054541972095
18.807152,4.339030660005517,0.1335277701025667
18.80954,4.341544617431131,0.1334992228335734
18.81192,4.341172530378794,0.13346912239322592
18.81432,4.345503492953592,0.13328443553739497
18.816708,4.349462368476052,0.1330686804912721
18.819088,4.350255660266839,0.13287531947494235
18.821488,4.3490468513112095,0.13272915396448712
18.823876,4.346627337542081,0.13262530862349292
18.826256,4.349003421198705,0.13241638855833715
18.828652,4.356547189333417,0.13213223057789095
18.83104,4.36395118784127,0.13185826936535525
18.83342,4.373077747841818,0.1315615781371761
18.835824,4.378339875976393,0.1313513955981366
18.838212,4.382531068924331,0.13117105790598926
18.840592,4.3784343196328805,0.1312140613690149
18.842988,4.37447733996829,0.13124376715714867
18.845376,4.366935467691446,0.1313313675896486
18.847756,4.36260640097452,0.131330146551968
18.850152,4.354552672018478,0.13140071213273485
18.85254,4.345288238248939,0.13151338375669022
18.854924,4.33509263891962,0.13164612344892831
18.85732,4.323965874030523,0.13179553773892075
18.859704,4.3172153976865975,0.13187907591577874
18.862084,4.3053897846632,0.13208988620628015
18.864492,4.294495337199581,0.13228271773678277
18.866876,4.291189983841048,0.13231778305570593
18.86926,4.292540458281406,0.1322634754818324
18.871656,4.29654465977424,0.13216702391872584
18.874044,4.299477926080435,0.13210186882128624
18.876428,4.299477926080434,0.13210186882128622
18.878832,4.301759566080571,0.13203055766783053
18.88122,4.300456313468456,0.13201769575512448
18.8836,4.3003637656698395,0.13196287630781484
18.885996,4.302972166751941,0.1318000191977888
18.888388,4.305720337460901,0.13162268867819635
18.890768,4.304464306677028,0.13154250574557397
18.893172,4.304139441452935,0.13144440405471128
18.89556,4.302883410669062,0.13136442396438475
18.89794,4.304141337310804,0.1312542305006802
18.900336,4.308332530258741,0.1310781749317076
18.90272,4.315037680632292,0.1308712412859507
18.905104,4.318669795072789,0.13074198172113422
18.9075,4.323512614326783,0.1305728942773808
18.909888,4.33343057026025,0.13027686051112722
18.912268,4.3442796917534965,0.12996475929383927
18.914672,4.348191345447713,0.1298156867564583
18.91706,4.351311603209011,0.12967356387721485
18.91944,4.357924205783946,0.1294244546844573
18.921836,4.3645368083588805,0.1291773934553948
18.924224,4.371428950187536,0.1289052761104293
18.926604,4.380974819068666,0.1286004725626248
18.929008,4.392383019069351,0.1282614147474981
18.931392,4.407376111682291,0.1278712355200332
18.933772,4.424883161720845,0.1274659565790853
18.936172,4.447465348438871,0.12694957176621055
18.938556,4.474191506276592,0.12633644856639029
18.940936,4.497984397808116,0.1257810224582641
18.943344,4.52177728933964,0.12522713121271972
18.945732,4.545570180871166,0.12467170510459358
18.948112,4.566429806096496,0.12417759246841883
18.950508,4.588779675389045,0.1236279792200916
18.952896,4.614202580614649,0.12300264376863412
18.955276,4.639625485840253,0.12239326053826921
18.957672,4.66383768625236,0.12182883429909085
18.96006,4.686839181850965,0.12130339074444989
18.96244,4.713844878942406,0.12069589238360863
18.964836,4.740850576033846,0.12009417508145863
18.967224,4.7595683308859,0.11967776540563271
18.969608,4.774142114618259,0.11935021932324975
18.972004,4.791229855776232,0.11900151546933155
18.974392,4.803521999508455,0.11874054763222794
18.976772,4.817536704733372,0.11846378942185233
18.979172,4.827686978092316,0.11825650548577446
18.98156,4.829689078838733,0.11821716460080121
18.98394,4.827686978092316,0.11825611814333757
18.98634,4.820609740666426,0.11839813014963907
18.988724,4.817257165479651,0.11848352189765399
18.991124,4.815487382158711,0.11856167366031
18.99352,4.815999238837909,0.11857965812563029
18.995904,4.820235757756221,0.1185424137679896
18.998284,4.8203283055548365,0.11859208625706257
19.00068,4.82200364521929,0.1186352917828506
19.003068,4.816461977830993,0.11882751444175679
19.005448,4.808918209696282,0.11905804264200527
19.007852,4.804447477494624,0.11922475277018371
19.01024,4.797974644546551,0.11942784959200634
19.012624,4.790710415665556,0.11963276497201364
19.01502,4.789452489023815,0.11972678798229613
19.017408,4.793129929434686,0.11973224462259693
19.019792,4.793082707606442,0.11979207732923124
19.022188,4.79196455059156,0.11987667114320691
19.024572,4.788844292830262,0.11999892848303231
19.026956,4.785863804695824,0.1201113555600755
19.029352,4.78595635249444,0.12016153161407632
19.03174,4.784838195479559,0.12024813018263945
19.034124,4.786513535144013,0.12029140204135444
19.03652,4.785395378129131,0.12037851590443333
19.038908,4.779621393315358,0.12053964263059308
19.041288,4.772636703688086,0.12073512133552003
19.043684,4.7588543158886445,0.12105595877982947
19.046076,4.750286834395536,0.12125880635732354
19.048456,4.741067726596371,0.12145250399715546
19.050852,4.736132359543758,0.12154736219971642
19.05324,4.733199093237563,0.12160218180273773
19.05562,4.726401395065395,0.12172538552257876
19.05802,4.719603696893227,0.12184858924241981
19.060408,4.711315754653839,0.12203023921457402
19.062804,4.701025711668034,0.12225010926390235
19.065204,4.687942172002893,0.12251242714383535
19.067592,4.6812842434575845,0.12262221002241239
19.069972,4.676488646031833,0.12270454556247573
19.072368,4.671832818232942,0.1227762513944822
19.074756,4.668108155993829,0.12283383972826016
19.07714,4.671600500807465,0.12273849547078983
19.079536,4.681238917487211,0.12251766276227835
19.081924,4.691156873420678,0.12227563039548961
19.084304,4.703076930100562,0.1219954113005726
19.0867,4.721143058646557,0.1215900178160704
19.089088,4.737346856072995,0.12121248928072077
19.091472,4.758486020552045,0.12073821366687594
19.093868,4.774270509097902,0.12038974857129378
19.096256,4.788984062457121,0.12006745588520804
19.098636,4.803557846189481,0.11975619000526057
19.101032,4.819202565108479,0.11942409666533639
19.10342,4.836849384773893,0.11905442449888942
19.105804,4.856638074812584,0.11863998294932473
19.108208,4.876566534478136,0.11821063162149652
19.110596,4.896494994143688,0.11778128029366831
19.112976,4.917494388995878,0.11732669727285161
19.115372,4.933790734220933,0.11700691407732595
19.117764,4.951437553886346,0.11664397041559581
19.120144,4.968292977618843,0.11628337278242067
19.12254,4.989152602844173,0.11585467994559911
19.124928,5.000793120270336,0.11560977605403185
19.127308,5.007498270643888,0.11545200799393399
19.129704,5.015134586577217,0.11528237654266293
19.132092,5.022631132883687,0.1151240214629649
19.134476,5.026123477697324,0.11503693215378624
19.136872,5.028684656951181,0.11496161801296967
19.13926,5.033387706578316,0.11484275293350535
19.141644,5.043445432138644,0.1146135004755548
19.14404,5.050849430646497,0.1144095772024015
19.146432,5.05746203322143,0.11420766601741429
19.148812,5.062491843930529,0.11401207898668894
19.151216,5.06565932352007,0.11384109446049515
19.153604,5.066824702363196,0.11370506621057137
19.155984,5.0692007860198185,0.1135369462142973
19.15838,5.071716639303302,0.1133590346891003
19.160768,5.074232492586787,0.11318131963658512
19.163148,5.075445093258154,0.11298728051544323
19.165552,5.0777286291161605,0.11277313464268723
19.16794,5.082945431280362,0.11251480020978624
19.17032,5.082715009712754,0.11231792690725044
19.172716,5.083974832212366,0.11206824307998305
19.175104,5.088587229898753,0.111745451248377
19.177484,5.09347916683886,0.11140530961727294
19.17988,5.095857146353354,0.11107969269749013
19.182268,5.1000974569874025,0.11073153547963446
19.184648,5.108621508368006,0.1102999504932926
19.187052,5.1127692712034385,0.10990755341891234
19.18944,5.110119335866702,0.1096121418619345
19.19182,5.1134757027692155,0.10922200171390395
19.19422,5.118973940045008,0.10879146837048101
19.196608,5.120467975827965,0.10842156720340113
19.198988,5.122101781237784,0.10804095528104399
19.201384,5.122013025154905,0.10767165343685026
19.203772,5.124485448325884,0.10723461059386986
19.206156,5.126585784444525,0.10676997398594996
19.208552,5.132038695749943,0.10623935713162298
19.21094,5.142426974107971,0.1056404749797791
19.21332,5.145738015040113,0.10514957619833049
19.21572,5.146535098546639,0.10467261285175807
19.218108,5.147983808359223,0.10420232644527794
19.220488,5.151434618918223,0.10370099346842335
19.222892,5.149810292797753,0.10327921972524089
19.22528,5.145112930744225,0.10290650519598428
19.227664,5.141486503877337,0.10251239725405033
19.23006,5.13762775958497,0.10208170030342753
19.232444,5.131766914546187,0.10168167061866051
19.234828,5.126417926186603,0.10129840160175302
19.237224,5.128146175252907,0.10080898359584349
19.239612,5.125730453199517,0.1003884576743016
19.241992,5.12131263039971,0.09999647004899888
19.244392,5.1236925057720715,0.09951959379355452
19.24678,5.1282142515177105,0.09900654500158605
19.24916,5.131804831703572,0.09849867564558938
19.251556,5.129900966329379,0.09809376297402704
19.253944,5.131442223940581,0.09767327314483748
19.256324,5.129910445618726,0.09730108471562461
19.258724,5.126516336177314,0.09694906958686451
19.261108,5.132481104161929,0.09645678129948185
19.263508,5.1423103040125175,0.0959264321392413
19.265904,5.1525588127436865,0.09536834317429892
19.268292,5.162947091101716,0.09480352382744135
19.270676,5.177339570952579,0.09418717101314192
19.273072,5.196946957109775,0.0934986014146278
19.27546,5.219347839946306,0.0927909211128062
19.27784,5.238908004275259,0.09216132912344265
19.28024,5.260190730096907,0.09153047418725246
19.282624,5.281892764799137,0.09087267774402762
19.285008,5.298379893195035,0.09029269715045954
19.287404,5.317008891964208,0.08968184070024397
19.289792,5.335917429987104,0.08905345626973953
19.292172,5.350170140211107,0.08846567018094466
19.294568,5.361349814502054,0.08791807467850982
19.296956,5.377325086218754,0.08732666811366258
19.29934,5.398655033868646,0.08665680411922856
