Time,Force,Position
18.802552,0.0014204234483325155,0.0
18.804932,0.0014204234483325155,0.0
18.807348,0.0014204234483325155,0.0
18.809732,0.0014204234483325155,0.0
18.812112,0.0017699117100265001,0.0
18.814516,0.005052666277915656,0.0
18.8169,0.008335420845804811,0.0
18.81928,0.011618175413693966,0.0
18.821672,0.015482607279667458,0.0
18.82406,0.02384049852702885,0.0
18.826456,0.03354886421474919,0.0
18.82886,0.043257229902469524,0.0
18.831248,0.05203443003041154,0.0
18.833628,0.05974069497171504,0.0
18.836024,0.0665157943532402,0.0
18.838408,0.07007808817484978,0.0
18.840788,0.07298875569040146,0.0
18.843192,0.0746887183924544,0.0
18.84558,0.0753177459078688,0.0
18.84796,0.07531774590786881,0.0
18.850364,0.07531774590786883,0.0
18.852748,0.07531774590786883,0.0
18.855128,0.07531774590786883,0.0
18.857532,0.07531774590786883,0.0
18.85992,0.07496825764617482,0.0
18.8623,0.07168550307828567,0.0
18.864696,0.06840274851039652,0.0
18.867084,0.06511999394250736,0.0
18.869468,0.05983513862820135,0.0
18.871868,0.05147724738083996,0.0
18.874256,0.04176888169311962,0.0
18.876636,0.03206051600539927,0.0
18.87904,0.023283315877457255,0.0
18.881428,0.015577050936153764,0.0
18.883808,0.008801951554628595,0.0
18.886212,0.005239657733019019,0.0
18.8886,0.0023289902174673414,0.0
18.89098,0.0006290275154144053,0.0
18.893384,0.0,0.0
18.895768,0.0,0.0
18.898148,0.0,0.0
18.900552,0.0,0.0
18.90294,0.0,0.0
18.90532,0.0,0.0
18.907724,0.0,0.0
18.910108,0.0,0.0
18.912488,0.0,0.0
18.914892,0.0,0.0
18.91728,0.0,0.0
18.91966,0.0,0.0
18.922064,0.0,0.0
18.924448,0.0,0.0
18.926828,0.0,0.0
18.929232,0.0,0.0
18.93162,0.0,0.0
18.934,0.0020720497543904154,0.0
18.936396,0.00414409950878083,0.0
18.938784,0.00414409950878083,0.0
18.941164,0.00414409950878083,0.0
18.94356,0.004144099508780831,0.0
18.945948,0.004144099508780831,0.0
18.948332,0.004144099508780831,0.0
18.950728,0.004144099508780831,0.0
18.953116,0.004144099508780831,0.0
18.955492,0.008358019636448309,0.0
18.957892,0.010430069390838723,0.0
18.960276,0.014364450264785777,0.0
18.962656,0.021371867071788217,0.0
18.96506,0.02931044943856898,0.0
18.967448,0.03645763587243162,0.0
18.969828,0.04253388711965574,0.0
18.972224,0.04753920318024133,0.0
18.974612,0.049471483307771534,0.0
18.976992,0.050472597875523426,0.0
18.979392,0.050472597875523426,0.0
18.981776,0.04840054812113301,0.0
18.984156,0.04632849836674259,0.0
18.986556,0.04632849836674259,0.0
18.98894,0.04632849836674259,0.0
18.991324,0.04632849836674259,0.0
18.993728,0.04632849836674259,0.0
18.996112,0.04632849836674259,0.0
18.998492,0.04632849836674259,0.0
19.000888,0.04632849836674259,0.0
19.003276,0.042114578239075114,0.0
19.005656,0.0400425284846847,0.0
19.008056,0.03610814761073765,0.0
19.01044,0.029100730803735205,0.0
19.012824,0.021162148436954447,0.0
19.01522,0.014014962003091795,0.0
19.017604,0.007938710755867677,0.0
19.019988,0.0029333946952820903,0.0
19.022384,0.0010011145677518848,0.0
19.024772,0.0,0.0
19.027152,0.0,0.0
19.029548,0.0,0.0
19.031936,0.0,0.0
19.034316,0.005558706994418702,0.0
19.03672,0.012558540369944174,0.0
19.039108,0.02756298501539856,0.0
19.041488,0.05080435835625913,0.0
19.043884,0.09294479043066806,0.011616983244066284
19.046272,0.1489091445591531,0.022454135409660327
19.048652,0.21976835592835275,0.032671127838796395
19.051052,0.30938685640424063,0.042140880704261724
19.05344,0.4129690485610647,0.05144659102562989
19.05582,0.5337277379587407,0.060396005200290585
19.05822,0.6704522197837699,0.06916340070607682
19.060608,0.8234220332898727,0.07774874344630314
19.062988,0.9899834514245744,0.08627095293615776
19.065392,1.1713944008296169,0.09459606217783809
19.067776,1.3673753422512793,0.10278297077955033
19.070156,1.5769951101297839,0.11087599165424213
19.07256,1.7973204381589354,0.11897059446623962
19.074948,2.02993411820457,0.1270454345002482
19.077328,2.277909186199743,0.13501588105583662
19.079724,2.541013324718977,0.14286011072418053
19.082108,2.8091717685958217,0.15067238310824446
19.084492,3.0945577232575023,0.1582298355974158
19.086892,3.379388391127481,0.16565910408927886
19.08928,3.6644098421683005,0.17290441002086496
19.09166,3.9277859596244804,0.16852947507286326
19.09406,4.180737952041603,0.1648082811170564
19.096444,4.416328351620639,0.1616851973147886
19.09884,4.628690625749199,0.15932469837515473
19.101244,4.8263450340921485,0.15708560080505674
19.103628,5.0043089877686295,0.15522840443225566
19.106008,5.16579529233856,0.1535407224915993
19.108404,5.308894394854139,0.15208276896001474
19.110788,5.438773979793457,0.15070959141129375
19.113168,5.555479373126888,0.14956166261767365
19.115568,5.658638487802094,0.14857657449129577
19.117952,5.7514641293789905,0.1476531483772855
19.120332,5.837728181924936,0.1466436469131608
19.122736,5.91161133465578,0.14561531238761363
19.125124,5.965244954212717,0.14473282547324834
19.127504,5.999373214700422,0.14403185439162705
19.1299,6.018372404664065,0.14342906770739156
19.132288,6.013255733729957,0.14316522094866024
19.134668,6.00068973831762,0.14302955818723714
19.137072,5.9824895277183705,0.14303071051507385
19.13946,5.967547448649412,0.1430476816275731
19.14184,5.9455734581249375,0.1432950107232915
19.144236,5.923365254317116,0.1436547144929256
19.146624,5.902924937972366,0.14409113111601488
19.149004,5.884951357224989,0.1445461010071719
19.1514,5.871493834649644,0.14493234207463365
19.153788,5.858687938380357,0.14532143804641728
19.156172,5.845370185431873,0.14570322083273146
19.158568,5.829306157632296,0.1460847717890054
19.160956,5.807190501623093,0.14650474539633412
19.163352,5.785541376322715,0.14684269528769492
19.165748,5.75579130023805,0.14731078786364016
19.168136,5.720034921914134,0.1478994032121327
19.170516,5.684371091388836,0.14852661440003664
19.17292,5.651453535714631,0.14916964001367602
19.175308,5.62212087265268,0.14976549130149808
19.177688,5.600097764442095,0.15023999687247605
19.180092,5.5824509447766815,0.15065895861139253
19.18248,5.564524585857549,0.15109861285339413
19.18486,5.540731694326024,0.15166234051724942
19.187256,5.515495780555526,0.15223250010496228
19.189644,5.495614542718216,0.15267101389094187
19.192024,5.483229851187378,0.1529163612985033
19.19442,5.474617043723898,0.15304136169903026
19.196808,5.46428167476772,0.15319045000605086
19.199192,5.45422584506526,0.15331666917502823
19.201596,5.443099080176162,0.1534702140139182
19.20398,5.435696977526177,0.153555654258389
19.20636,5.430669062674947,0.15361968360040826
19.208756,5.432950702675084,0.15355502220634767
19.21114,5.4342539552872,0.15356031126474234
19.21352,5.445800029056876,0.1533762363246179
19.215924,5.4598600602521685,0.15315891700741424
19.218312,5.478575919246351,0.15286026152386178
19.220692,5.503949706785844,0.15243485421125855
19.223088,5.53169768212409,0.15198887558799412
19.225476,5.555720995223224,0.1516134817210803
19.227856,5.58281734425541,0.1511694895991409
19.230252,5.608610440675485,0.15071707480930702
19.232636,5.636685177095696,0.1501939184705898
19.23502,5.666762014262321,0.14962712694401153
19.237416,5.695256059563113,0.1490784975588977
19.2398,5.720956608184571,0.14859317312984946
19.242196,5.748239948671861,0.14810037814056842
19.2446,5.774033045091935,0.147658796957616
19.246988,5.793120991138458,0.1473905476261263
19.249364,5.813000333117897,0.14711391669025128
19.251772,5.833671071030256,0.14683390089766538
19.254156,5.858346010435448,0.14647464277032285
19.25654,5.882089784280863,0.14613867098794142
19.258936,5.903459370327522,0.14581990399504227
19.261324,5.917659171149677,0.14561360346276614
19.263704,5.93199874159869,0.1453985232591171
19.2661,5.939540613875536,0.1453134559675
19.268488,5.944848067980485,0.14524010678214755
19.270868,5.950714600592876,0.14513130623931253
19.273264,5.957652068391904,0.14499804627226687
19.275652,5.964869075444655,0.14484877120606268
19.278032,5.974739809549878,0.14466394801128796
19.280428,5.987543809961299,0.14442687081465103
19.282816,5.997274774439662,0.14425165543659096
19.285196,6.007145508544887,0.14406798032891482
19.2876,6.0120808755974995,0.1439758972891129
19.289988,6.014642054851357,0.14390171150755687
19.292372,6.022977218918989,0.1436840379697324
19.294768,6.038017533360171,0.14330517596616618
19.29716,6.054408322241712,0.1428860804357872
19.29954,6.072429124817334,0.1424152093867871
19.301936,6.086445725900122,0.14202358067254361
19.304324,6.095387190303435,0.14172786342676044
19.306704,6.108332856199584,0.1413585175200836
19.3091,6.124211788401928,0.14093797222825472
19.311488,6.138787467992156,0.14051110591692959
19.313868,6.151920125343408,0.1400800096793188
19.316264,6.160908811574966,0.13973361967134232
19.318652,6.166172835567411,0.1394449572083584
19.321048,6.171436859559856,0.1391565804471954
19.323444,6.173348308365526,0.1389466416169028
19.325832,6.177401627544472,0.13869324448492654
19.328212,6.178242141163501,0.1385080077808095
19.330608,6.184297561088864,0.13821973501463722
19.332996,6.192075542506924,0.13791448036884468
19.335376,6.2049286606044545,0.13751455144221628
19.337772,6.217642009075126,0.13712409067663098
19.340164,6.225419990493185,0.13682185132656624
19.342544,6.233197971911244,0.13652310736504153
19.34494,6.2399050181426645,0.13624698269427185
19.347328,6.240186453254255,0.1360999471080372
19.349712,6.238745326873147,0.13597006059607664
19.352108,6.242519106798369,0.13574073846494347
19.354496,6.240426354111204,0.13560645104650293
19.356876,6.237402435864259,0.13548532873410746
19.359272,6.234750604669651,0.13538502573197353
19.36166,6.240758802766772,0.13515161801869158
19.364044,6.248769101610308,0.13488294121845526
19.366436,6.2612954586258756,0.1345592753543023
19.368824,6.275823916387861,0.13420378831021632
19.371204,6.293704949336621,0.13377782736282567
19.373616,6.30543991041927,0.13346232970983674
19.376004,6.3183855763154195,0.13311657445888161
19.378384,6.325185170345457,0.13288107439187788
19.38078,6.325047296576467,0.13275895403294452
19.383164,6.32197615650128,0.132683662811043
19.385544,6.318765246799232,0.1326167655847012
19.387952,6.313272697097045,0.13260081156267894
19.390336,6.305358737767863,0.13264376342740256
19.392716,6.2963738432520415,0.13270803468097878
19.395112,6.289530819109498,0.13273058262052048
19.3975,6.284410356459652,0.13273598148578816
19.399884,6.27742756269025,0.13276653041056935
19.40228,6.2752403663465985,0.1327243585675593
19.404664,6.272773630749227,0.13269920157162057
19.407044,6.268863872912882,0.1326742976089616
19.40946,6.258947812837282,0.1327510962961293
19.411844,6.25075431425438,0.13281021231874782
19.414228,6.239627549365282,0.13291448790875188
19.416624,6.22449658298335,0.13308530293462484
19.419008,6.206152811041502,0.13331731539773214
19.421388,6.19195301021935,0.1334752196821482
19.423792,6.178032748650916,0.13361546390431175
19.42618,6.1671855230155375,0.13370267602667774
19.42856,6.1646262396195475,0.13363892083652867
19.430952,6.164069056969976,0.13354160511036067
19.43334,6.165002118387624,0.13339843650861455
19.43572,6.171150086111604,0.13315925344657395
19.438124,6.176786197156387,0.13290692969875167
19.440512,6.183633013014668,0.13262503989602228
19.442892,6.192062620738785,0.13233504884589184
19.445296,6.2017029332764,0.13201677711979204
19.447684,6.211063706560296,0.13171571271802823
19.450064,6.222286810963748,0.13139311887499094
19.45246,6.237653886486895,0.13100099586712186
19.454844,6.257537020182071,0.13055898513047146
19.45724,6.278491089063887,0.1300960404865063
19.459636,6.295068869400532,0.12967625508382793
19.46202,6.307921987498063,0.12930123606295388
19.4644,6.326781407834843,0.1288316081301708
19.466796,6.347922468171762,0.12831421790182437
19.46918,6.367852823695183,0.12782720915283108
19.47156,6.387783179218604,0.1273423993841881
19.47396,6.4098554051153025,0.12682138727131345
19.476348,6.430716926198501,0.12633616445603668
19.478744,6.4514386776548385,0.12586223990441706
19.48114,6.470809954670819,0.12542647736701273
19.483528,6.4899016924330795,0.12501177280361125
19.485912,6.509784826128256,0.12459403045934864
19.488308,6.5316700605698506,0.12415005833503742
19.490696,6.552112272772469,0.12370452766365564
19.493076,6.571623319415309,0.12327215694696848
19.495472,6.595557876431562,0.12276351164539935
19.49786,6.615907540835564,0.122292619356527
19.50024,6.631461607813813,0.12188591623569109
19.502636,6.643570551806671,0.12150752571542985
19.505024,6.6567504309861665,0.12111267457879595
19.507408,6.677379634643889,0.12063959166176601
19.509804,6.705877471660417,0.1200640633643356
19.512192,6.727158301624198,0.11959844835416542
19.514576,6.74522632602806,0.11918567883142257
19.51698,6.763573889685645,0.11875831084474824
19.519368,6.779360274089372,0.11838757454666195
19.521752,6.792073622560044,0.11806353860324474
19.524148,6.797849503231688,0.11783048974181683
19.526536,6.798550247223858,0.1176693752774201
19.528916,6.79710912084275,0.11754338170556597
19.531312,6.79194333222253,0.11745777812518972
19.5337,6.787057082856029,0.11735669098442895
19.536084,6.779097797556473,0.11730068454704054
19.53848,6.774211548189974,0.11719938703742583
19.540864,6.770116694756393,0.11709584244219345
19.543248,6.759456460576119,0.11710342063735389
19.545644,6.749447852701904,0.11711631842383965
19.548032,6.739019935947109,0.11715215029588735
19.550412,6.732037142177707,0.1171635783256264
19.552812,6.722912478035028,0.11720914266226812
19.5552,6.705127784600622,0.11735549273159107
19.55758,6.67947445780741,0.11760013748767065
19.559976,6.655311375081416,0.11780832763365445
19.562364,6.635012724221396,0.11796992324815282
19.56476,6.613643138174737,0.11814848090345423
19.567156,6.599630328807688,0.11821282689815546
19.56954,6.5876196201870565,0.11825014502401673
19.57192,6.581475444178815,0.11821561128831486
19.574324,6.583619210409962,0.11805901947059588
19.576712,6.591117652574301,0.11781759696330635
19.579096,6.600338656231335,0.11756385028093025
19.581492,6.6110026821273475,0.11731515419400057
19.583876,6.620316233583,0.11709704219794322
19.58626,6.627999771344572,0.11692770475883224
19.588664,6.630608172426673,0.1168275391756838
19.591048,6.635498213508911,0.11668502588382469
19.593432,6.641598959404649,0.11651827764604401
19.595828,6.648910410113884,0.11632647907809597
19.598216,6.651286493770509,0.11619791995548849
19.600596,6.652731411867352,0.11607834291051163
19.602996,6.658971927389949,0.11590212254021008
19.60538,6.670939205898077,0.11565919716733605
19.60776,6.68556021145868,0.11539476182295128
19.610164,6.696177015526447,0.11518461986774892
19.612552,6.70972708590041,0.11493877027961495
19.614932,6.71326665254229,0.11482798677081071
19.617328,6.716526679930448,0.11473293849751594
19.619716,6.7229995128785225,0.11458846419815012
19.622096,6.722255338773848,0.11454706069495244
19.624492,6.721231625415454,0.11452074933928102
19.62688,6.723280947990113,0.11445289273118325
19.62926,6.719603507579243,0.11444626932610781
19.631656,6.720349577541787,0.11436664426469889
19.634044,6.715648423772523,0.1143337961073243
19.63644,6.719235212242644,0.11418350019196652
19.638836,6.7229617703396265,0.11402599357965533
19.641224,6.721752961383996,0.11392829079003376
19.643604,6.7177506557490325,0.11385772753557852
19.646,6.715890220487346,0.11375363715321114
19.648388,6.7160318859720745,0.1136232744401825
19.650772,6.7141714507103885,0.11351894616352966
19.653168,6.711379849888924,0.1134241161691623
19.655556,6.7075173138808175,0.11334593569489186
19.65794,6.704074086753294,0.11324496195389579
19.660336,6.697557823692716,0.11318645323612869
19.662724,6.694766222871251,0.11309084365819572
19.665108,6.690391830183948,0.11299865771418617
19.667508,6.678800430443896,0.11300881181991565
19.669896,6.669350901077122,0.11298580028594098
19.672276,6.6509618031649005,0.11307845502691843
19.674676,6.625775007080512,0.11325241967106565
19.677064,6.608876153235512,0.11330414499396428
19.679448,6.589695659390374,0.11339600312799324
19.681844,6.580106360396741,0.11337963902890046
19.684236,6.564370989536995,0.11344774874350462
19.686616,6.546493748303974,0.1135496171640794
19.689016,6.5344830396833435,0.1135813830892559
19.6914,6.52791955479452,0.11356545810311636
19.693784,6.52042490434592,0.11355864533245304
19.69618,6.516003289830376,0.11350895421439011
19.698564,6.513863315314968,0.11341850911543329
19.700944,6.510931944866642,0.1133295959583608
19.703344,6.509490818485534,0.11320189231189672
19.705728,6.513776455089957,0.11301446745136215
19.708112,6.520064192440797,0.11280215524773901
19.710516,6.532498001657749,0.11251010789123557
19.712904,6.5445125019941175,0.11223935851829596
19.715284,6.559320499009823,0.11194024019809494
19.71768,6.576130596771945,0.11161683374823354
19.720068,6.604813529385709,0.11115114452317308
19.722448,6.637221124238584,0.11064569064736923
19.724852,6.664134273531407,0.1102341579291163
19.72724,6.69211835801087,0.10980776985326171
19.72962,6.712373578758386,0.10946803500035891
19.732016,6.7335599650656786,0.10911738640905719
19.734404,6.761683819172001,0.10868749839060457
19.736784,6.789667903651463,0.10826994516692717
19.73918,6.8149982610784505,0.10787344891429555
19.741568,6.842190949624994,0.10746090857931735
19.743952,6.8663106022384826,0.10709183200212945
19.746348,6.890290485225111,0.10673320178233472
19.748736,6.914130598584879,0.1063827498557691
19.751116,6.935269763063929,0.10609227040176539
19.753512,6.951194021236647,0.10587278735629999
19.7559,6.963114077916531,0.10569874078187246
19.758284,6.968096666797386,0.10560302902031053
19.76068,6.977362996424795,0.10544807827738294
19.763068,6.991052836425619,0.10522860093298546
19.765464,7.0035319716129445,0.10503168192641787
19.76786,7.009213408628101,0.10490411759366726
19.770248,7.01438298896406,0.10476320988753893
19.772628,7.020903043740376,0.10459369365480502
19.775032,7.025700537023996,0.1044325198451331
19.77742,7.036783871800589,0.10419228247701813
19.7798,7.050288616204179,0.10391008192413531
19.782204,7.055924727248962,0.10370894561077662
19.784592,7.058767341614409,0.10353020937092948
19.786972,7.060678790420079,0.1033586259288205
19.789376,7.0596569729195515,0.1032156490720061
19.791764,7.059566320978805,0.10306562887475393
19.794144,7.055331697918362,0.10296509994293186
19.79654,7.0500261396712816,0.10287866696739675
19.798928,7.04635059511828,0.10275023275934457
19.801308,7.04309435944586,0.10260070512371867
19.803708,7.045192799706633,0.10237969980544714
19.806096,7.048501944780902,0.10213657590597323
19.808476,7.047667118735481,0.10194437626465114
19.810872,7.037892724144611,0.10184514257973185
19.81326,7.027326933620826,0.10174612235467106
19.81564,7.015550438283541,0.10166832373984286
19.818044,7.00614813074501,0.10158925251563823
19.820428,6.996466283952758,0.10152393446043756
19.822808,6.988506998653203,0.10145086724093848
19.8252,6.976915598913151,0.10144038208577337
19.827588,6.965975825479158,0.10143562902469086
19.829968,6.956898383164721,0.10141713025694646
19.832368,6.946750005663645,0.10141280123974562
19.834756,6.937532793722348,0.10140124620966777
19.837136,6.933670257714244,0.10131938385983719
19.83954,6.928085160213444,0.1012445941516431
19.841928,6.928646134578754,0.10110017282865673
19.844308,6.92641361226473,0.1009760301855793
19.846704,6.926974586630039,0.10083141926045813
19.849092,6.92604531692813,0.10072095366822514
19.851476,6.918550666479529,0.10070118147917904
19.853876,6.911847411963848,0.10068115448409584
19.856264,6.90221089114197,0.1006898547547379
19.858644,6.897230198118984,0.10066289105302453
19.861048,6.895043001775333,0.10061421015946899
19.863436,6.89541698468554,0.10051569396831614
19.865816,6.890203974237076,0.10046039181717888
19.868216,6.884199567855695,0.10040519438715323
19.8706,6.87419095998148,0.10039338882266832
19.872984,6.8635307258012075,0.10037474507962875
19.87538,6.847515815687741,0.10042876364874782
19.877768,6.8337825455744134,0.10044620600191011
19.880148,6.824984642513698,0.10041258471144286
19.882544,6.818188840199399,0.10035713609029469
19.884932,6.806829757884826,0.10037220973652441
19.887312,6.7942599707567535,0.10040876770934487
