Time,Force,Position
21.621844,0.5640599050477529,0.004627143118053286
21.624232,0.5295595575077118,0.0023375050557377947
21.626612,0.4942678140347526,0.0
21.629008,0.4627007328009068,0.0
21.631396,0.4261982845144489,0.0
21.633776,0.3864694225932653,0.0
21.63618,0.34674056067208164,0.0
21.638568,0.31008473468395337,0.0
21.640948,0.27414136490493635,0.0
21.643344,0.24169033993955535,0.0
21.645732,0.21124141572059119,0.0
21.648116,0.18251505299432347,0.0
21.650512,0.154719855827834,0.0
21.6529,0.13386212646037352,0.0
21.65528,0.11179369227941427,0.0
21.65768,0.09144781959115142,0.0
21.660068,0.07304321774625211,0.0
21.662448,0.06143631407352145,0.0
21.664852,0.05304221596070639,0.0
21.66724,0.0434374130343926,0.0
21.66962,0.03668693669046709,0.0
21.672016,0.028664925629989502,0.0
21.674408,0.02157408012929025,0.0
21.676788,0.015554169815229522,0.0
21.679184,0.014530456456834144,0.0
21.681572,0.015662221546526002,0.0
21.683952,0.015662221546526002,0.0
21.686348,0.015662221546526002,0.0
21.688736,0.014809995710554564,0.0
21.69112,0.014609396180641028,0.0
21.693516,0.012266926277450433,0.0
21.695904,0.01006422600112005,0.0
21.698288,0.007861525724789663,0.0
21.700684,0.0025857895154038947,0.0
21.703068,0.0014540244257120391,0.0
21.705448,0.0013931945226587144,0.0
21.707852,0.0013931945226587144,0.0
21.71024,0.0013931945226587144,0.0
21.712624,0.0013931945226587144,0.0
21.715028,0.0013931945226587144,0.0
21.717416,0.00133236461960539,0.0
21.719796,0.00133236461960539,0.0
21.722196,0.00133236461960539,0.0
21.72458,0.00133236461960539,0.0
21.726964,0.0011317650896918554,0.0
21.72936,0.0,0.0
21.731748,0.0,0.0
21.734128,0.0,0.0
21.736524,0.0,0.0
21.738912,0.0,0.0
21.741296,0.000570790724381771,0.0
21.743692,0.0012341292473806035,0.0
21.74608,0.0026416418750543963,0.0
21.74846,0.008517990846516423,0.0
21.75086,0.01979434172154502,0.0
21.753244,0.03097624894008732,0.0
21.755628,0.04765070586081323,0.0
21.758024,0.06911886434942172,0.0
21.760412,0.09319163220439254,0.0
21.762792,0.12624739871731375,0.0
21.765192,0.17066035168693966,0.011176094348680369
21.76758,0.22917676596436215,0.02159873349970586
21.76996,0.3033794334154174,0.031454322077873687
21.77236,0.39391998034616327,0.040934901490566326
21.774748,0.5060133130629323,0.049764800571584125
21.77714,0.6328617333935558,0.05850716663698469
21.779536,0.775303859099195,0.06705720474978953
21.781924,0.9313375894334328,0.07554292524899635
21.784308,1.0997522195827711,0.08404228229498374
21.786704,1.2834810158534045,0.09244468732645865
21.789092,1.4831638923344497,0.10070884071341352
21.791472,1.7002102575114508,0.10883123137160797
21.793868,1.933177089145431,0.11684310581149757
21.796256,2.179038573131578,0.12470322291540403
21.798636,2.4294142194318873,0.13258291060973665
21.801036,2.6932908184200475,0.14037375716876338
21.80342,2.958842757072661,0.14818696303460366
21.805804,3.228910753897306,0.15596745870715448
21.8082,3.505591353296887,0.16367814028097616
21.810588,3.7832050141141167,0.17127846192686128
21.812984,4.057003360751484,0.16761792922492766
21.81538,4.321493843506808,0.1646285457212188
21.817768,4.572067856409439,0.16214101567778164
21.820148,4.806211442033762,0.15999214157436226
21.822544,5.015776427767248,0.15850858732702763
21.824936,5.209934699580824,0.1571098766793424
21.827316,5.392735784937694,0.155857926510438
21.829716,5.565250619024497,0.15463966007462315
21.832104,5.726315718855979,0.15339399533083914
21.834484,5.874348292566302,0.15219340655850946
21.836884,6.004692512356576,0.15111706359795565
21.839272,6.114554881547466,0.15019552942836364
21.841652,6.206589127191446,0.1493703224651119
21.844052,6.274322416340442,0.1488200530448605
21.84644,6.335446894630241,0.14821891091545072
21.84882,6.38553905168743,0.1476898313192174
21.851216,6.428975176057181,0.14714957612069568
21.853608,6.464172475873655,0.14661979714356485
21.855988,6.491503038189189,0.14612116825084376
21.858388,6.5051928781900115,0.14578817914333858
21.860776,6.508826888488378,0.14556528335236507
21.86316,6.505663200614572,0.14546172230966745
21.865556,6.497377154233053,0.14550143092229148
21.867944,6.489835281956208,0.14558008874404138
21.870328,6.485039684530457,0.1456614296783319
21.872724,6.484899914903597,0.1456699538515501
21.875116,6.476147337813255,0.14577963305500435
21.877496,6.462786154752264,0.14591472196961916
21.879892,6.452917316504908,0.14596233446344167
21.882276,6.439695903070778,0.14608472420233448
21.884656,6.4252165629949065,0.14628471541228
21.887052,6.415345828889682,0.1464596682319158
21.889436,6.406219268889133,0.14667471401432275
21.891816,6.4091053133670846,0.14666878150232127
21.89422,6.405380651127972,0.14672575719336978
21.896608,6.398769944410907,0.1467881962286144
21.898988,6.39378925138792,0.14679380211504092
21.901392,6.388529019111215,0.146815985100245
21.90378,6.384572039446624,0.14684322600600266
21.906156,6.387272988327341,0.1467655187191351
21.908552,6.395281391313009,0.146621898763996
21.910936,6.409575635791647,0.14635587335760775
21.913316,6.4284331602705596,0.1459827415611723
21.91572,6.444916496950718,0.14562482693339712
21.918104,6.463029847324957,0.14521252049661648
21.920484,6.4751368954599435,0.14490962150033515
21.922896,6.494273959192577,0.14452044851524626
21.92528,6.517507772216661,0.14409835943232285
21.92766,6.533105269307415,0.1438397206144256
21.930064,6.549913471211669,0.14355014996730686
21.932452,6.571424722743055,0.14314748965591245
21.934832,6.589490851289051,0.14278226393179033
21.937224,6.6071848927827075,0.1423959300039386
21.939612,6.617661927223615,0.1421493894886654
21.942008,6.633027106888894,0.14186141389823706
21.9444,6.6478332080467295,0.141605822326418
21.946788,6.662499539577706,0.14136190112359212
21.949168,6.677864719242983,0.14107885222385802
21.951572,6.6900643151765875,0.14081816648878206
21.953956,6.699749953684577,0.14058323696694716
21.956336,6.707061404393813,0.14036503414957432
21.958728,6.706224682490521,0.14029089542402268
21.961116,6.708181457266563,0.14017916545270892
21.963512,6.717075699841635,0.13995686210789962
21.965908,6.728623669469181,0.13970861712183336
21.968292,6.742593048723726,0.13940351716738997
21.970672,6.7533968442465975,0.13911782567698824
21.973068,6.759544811970577,0.1388937035121911
21.975452,6.770256059694832,0.13857262886160188
21.977832,6.782969408165504,0.13822123464890476
21.98024,6.794472051822677,0.13790033582161582
21.982624,6.805974695479848,0.13757687336133592
21.985004,6.822412706189633,0.13718058877855577
21.987404,6.840340960966637,0.13673849655889936
21.989792,6.857897128691302,0.1362801132043239
21.992172,6.878526332349024,0.13577118188521614
21.994564,6.89715343526033,0.13529622964140808
21.996952,6.911357027798221,0.1349066584152802
21.999348,6.928354117015447,0.1344838394222143
22.001744,6.946142602165589,0.13405920428453513
22.004132,6.9617892169424564,0.13367280272622406
22.006512,6.982650738025656,0.1331945898781023
22.008916,6.995923165003768,0.13281923305053994
22.011304,7.004120455302408,0.13252915504832768
22.013684,7.008453313735075,0.13229461242428522
22.01608,7.012506632914021,0.13207555402357243
22.018468,7.020144844705221,0.13182040890379973
22.020852,7.028993761309918,0.1315377904649076
22.023248,7.037702908287756,0.13126447122040133
22.025632,7.040545522653203,0.13107249313721162
22.028012,7.039663474779537,0.13092483567714852
22.03042,7.049071469891675,0.13061687319889265
22.032808,7.051681766831646,0.1304010057659378
22.035188,7.056294164518032,0.13015647640263855
22.037592,7.060394705525222,0.1299015699031799
22.039976,7.0630522242934335,0.12964704778550018
22.042356,7.06519788638245,0.12938092354538755
22.044752,7.0726982244046575,0.12902509250087427
22.04714,7.0759148216803105,0.12874108359006328
22.04952,7.074987447836271,0.12852071668248377
22.051924,7.074991239552009,0.12828894994366197
22.054312,7.075926196827526,0.12804788659760724
22.056692,7.082448147461713,0.12774315899506652
22.059096,7.083894961416428,0.12751140250097015
22.061484,7.083619213878448,0.1272931154013329
22.063864,7.0854853367137425,0.12703959811941723
22.06626,7.083487027683063,0.1268363473108715
22.068644,7.083211280145082,0.12661959737277234
22.071024,7.0807936622338215,0.12643849072509045
22.073428,7.0853135121215916,0.1261621671541534
22.075816,7.094768729061974,0.12581903383341647
22.078196,7.0910006367103575,0.1256704213077289
22.080592,7.0890948754782945,0.1255005492281505
22.08298,7.086630035738794,0.12536034227461867
22.08536,7.084537283051628,0.12523926375349473
22.087764,7.080162890364328,0.12516013400404272
22.090148,7.07830245510264,0.12506520314063355
22.092528,7.075091545400594,0.12500217601470248
22.094932,7.077886937937796,0.12485828214979461
22.097316,7.08775956790089,0.1246170820194434
22.099696,7.102427795289737,0.12432178300941607
22.1021,7.108808080439195,0.12414600585991062
22.104488,7.113465804095955,0.12398350597442205
22.106868,7.123338434059049,0.12374138217196393
22.109264,7.135725021447756,0.12348385408981492
22.111648,7.145690199209466,0.1232760682891377
22.114028,7.154584441784538,0.12308429351648263
22.116432,7.1617561228669135,0.12290538087315493
22.11882,7.1732115446958415,0.12265986009071045
22.1212,7.181593930591716,0.12245955507889507
22.123604,7.186903280554534,0.12230299192994527
22.125992,7.1980791631297425,0.12207307606798824
22.128372,7.214050643130703,0.12179005574940903
22.130776,7.233514467945301,0.1214470243794583
22.13316,7.251907357573258,0.12112136183901553
22.13554,7.27388513981347,0.12076548054215076
22.137944,7.289344763135233,0.12047388531572792
22.140332,7.30280228571058,0.12020835663767125
22.142712,7.311743750113895,0.1199846030720669
22.14512,7.316820782651237,0.1198064915099494
22.147504,7.31617105220305,0.11969032517385267
22.149884,7.327813465487082,0.1194106517390226
22.15228,7.338664482838197,0.11913337200604425
22.154668,7.354590636868783,0.11879494914961782
22.157048,7.367863063846895,0.11847574884960696
22.159452,7.382765504519087,0.1181146868440393
22.161836,7.401811916310972,0.11769873476685891
22.164216,7.42579369515547,0.11722975342874996
22.16662,7.443629402133857,0.11684069038362696
22.169004,7.461604878739104,0.1164455621506379
22.171384,7.480651290530989,0.11603512358698669
22.173788,7.5001170112034545,0.11560716217397932
22.176176,7.515858069636805,0.11521653417783151
22.178556,7.522659559524713,0.11492754778355918
22.180952,7.527878257546784,0.11464115130144345
22.183344,7.532585098889655,0.11434452365279447
22.185724,7.545951969524254,0.1139606572306078
22.18812,7.561600480158991,0.11354100314636442
22.190504,7.577760847472923,0.11313310925098888
22.192888,7.5908481788538,0.11276164350873247
22.195292,7.603935510234677,0.1123881205646774
22.19768,7.610737000122584,0.11210100336645959
22.20006,7.616979411503051,0.11183989034489161
22.202456,7.614933880644129,0.11168402325114545
22.204844,7.613819515344986,0.11151959120888343
22.207224,7.610143970791984,0.11140453280364586
22.209628,7.602324455119287,0.11134141162719573
22.212012,7.589150263513398,0.11135075861262987
22.214392,7.576907237467288,0.11135283503566497
22.216792,7.5625223410479,0.11138439315845572
22.219176,7.546786970188153,0.11144409693748884
22.22156,7.530352751194105,0.11153610418985724
22.223956,7.51270782738656,0.11164937998555464
22.226344,7.503862702497599,0.11167063083857068
22.228724,7.498742239847751,0.11165979081353467
22.23112,7.491479906824627,0.1116778447487421
22.233504,7.480213372308668,0.11173955720324485
22.235884,7.466665197792572,0.11183619833701852
22.238288,7.452465396970421,0.11192742153324878
22.240676,7.441990258387383,0.11198796570117218
22.243056,7.435239782043456,0.11201719396486429
22.24546,7.426766744206832,0.112055568746222
22.247848,7.419644180810567,0.11206632272604929
22.250228,7.416665588533996,0.11202590598837449
22.252632,7.418622363310039,0.11193354621434497
22.25502,7.420858677339801,0.11182768369288507
22.2574,7.424957322489122,0.11170586120026298
22.259796,7.429475276519022,0.11156374841439971
22.262184,7.435855561668479,0.11140539395501005
22.264564,7.446891674616828,0.11120791027816858
22.26696,7.461420132378815,0.11095444436599637
22.269348,7.473294863088325,0.11071726978236605
22.271728,7.484378197864918,0.11048020308433645
22.274132,7.487453129655841,0.11033325290060389
22.27652,7.488386191073489,0.11021580368276679
22.2789,7.491181583610692,0.11008280518331152
22.281296,7.4949081417076755,0.10994233408921897
22.283684,7.500776570177935,0.10977322279090874
22.286068,7.506505229021334,0.1096104621240139
22.288468,7.510651095998897,0.1094500662169153
22.290852,7.510141135177569,0.10932824412407889
22.293232,7.50921186547566,0.1092258643544184
22.295624,7.510144926893307,0.10910827473192851
22.298012,7.512009153870734,0.10898362513702028
22.300408,7.507867078608907,0.10892469606216519
22.302808,7.503864772973944,0.10885902775140667
22.305196,7.500002236965838,0.10878673878711025
22.307576,7.496931096890654,0.10871336678998193
22.30998,7.494279265696048,0.10862017748387062
22.312364,7.48832208114291,0.10853735129851486
22.314744,7.477010220656577,0.10852454478239544
22.317144,7.470121870543661,0.10844879926667231
22.319532,7.468029117856496,0.10832955017908119
22.321912,7.4699405666621645,0.10816685543024249
22.324316,7.470129453975138,0.10801211681628142
22.3267,7.467245305355055,0.10789286272206608
22.32908,7.460496724868999,0.10781005758307746
22.331484,7.452537439569443,0.1077478917019979
22.333872,7.443507219083249,0.10769983420988309
22.336252,7.4363393297166125,0.10763651420285754
22.338656,7.434898203335506,0.10752166992684367
22.341044,7.440162227327952,0.10731011749519492
22.34342,7.441701589081283,0.10712830209564285
22.345824,7.438305583782003,0.10699622407217371
22.348212,7.434257952176664,0.10685764447866748
22.350592,7.435005917997078,0.10667626399421767
22.352984,7.435102257511432,0.10648894222351643
22.355372,7.436269532212427,0.10628814974436677
22.357752,7.439019598779258,0.10608679347626321
22.360144,7.443631996465645,0.10587156713068252
22.362532,7.4534593004583645,0.10559446696782747
22.364916,7.460725425197225,0.1053654921620325
22.367312,7.465337822883612,0.10515245331600945
22.369696,7.4733027957567755,0.10489463181850368
22.37208,7.483409639003216,0.10460997334427406
22.374476,7.495006726316875,0.10429160033307253
22.376864,7.511958489563726,0.10390704142254074
22.379244,7.528538165758239,0.10350375827978925
22.38164,7.548190877885809,0.10306684197388621
22.384028,7.565050093334045,0.10265065647995068
22.386424,7.578044876916306,0.10226988240670244
22.38882,7.585684984565374,0.10195714260661973
22.391204,7.597189524080416,0.10161232407248529
22.393588,7.611906869155372,0.10122742412330224
22.395984,7.630069337215722,0.10082800627257446
22.398368,7.639432006357487,0.10050734219788102
22.400752,7.648654905872391,0.10019282687738651
22.403148,7.654944539081101,0.09990439535217341
22.405532,7.657509510050698,0.09964239694274632
22.407916,7.658724006579934,0.09940662837622975
22.410312,7.65979873348231,0.09917866507494533
22.4127,7.6582197333322135,0.09896282980706074
22.415096,7.653427927622201,0.098784837355198
22.417488,7.641279345232578,0.09868998589796407
22.419876,7.6287114539623735,0.09861401528257638
22.422256,7.615724253811589,0.09855696364535646
22.424652,7.600175874406948,0.09854381896706779
22.427036,7.585139351681505,0.09854291124628438
22.429416,7.574246800075755,0.09849691663299917
22.431812,7.566939141082258,0.09843244985849646
22.4342,7.5594917124619005,0.09837418969023456
22.43658,7.550181952721987,0.09832816531605196
22.438996,7.536588452235519,0.09833198988477224
22.44138,7.52243587324161,0.09836086003445295
22.443764,7.509493999061198,0.09837036703227878
22.44616,7.503070283799237,0.09833724846814546
22.448548,7.500231461149528,0.09828592755935951
22.450928,7.502188235925572,0.09819813053204061
22.453324,7.509080377754227,0.09806811308692812
22.455712,7.513179022903547,0.09795556729325543
22.458092,7.514204632119811,0.09787384394451946
22.460496,7.516952802828772,0.09778590209035912
22.462884,7.522634239843928,0.09767301261262978
22.465264,7.536324079844752,0.09748636108049807
22.46766,7.5542976605921295,0.09725257642569932
22.470048,7.5754840468994225,0.09698313022320379
22.472428,7.597601598766494,0.09670823353470709
22.474824,7.620510546566483,0.09643439944699259
22.477212,7.636062717686864,0.0962411638541478
22.479596,7.649892327314547,0.09605448435755262
22.481992,7.666143346569229,0.09583219647910783
22.484376,7.687981359182579,0.09557584700173004
22.486772,7.713963342915625,0.09527826442491438
22.489168,7.738642074036555,0.094966848066668
22.491556,7.761738013291648,0.09465709760637793
22.493936,7.784461865494403,0.09433103268032972
22.49634,7.804531990644684,0.09401782654341448
22.498728,7.823810719862047,0.09370762058595634
22.501108,7.839364786840298,0.09342098735343912
22.503504,7.859482133818821,0.09307716065058114
22.505892,7.8808101856108435,0.0927158714663757
22.508272,7.906142438895701,0.09232305127535761
22.510668,7.9328251666209155,0.09190900006888089
22.513056,7.954991836174099,0.09151862651344846
22.515436,7.971431742741753,0.09116732039081442
22.51784,7.9869404837496285,0.09082361619075278
22.520228,8.00114597214539,0.09046703900798884
22.522608,8.014048207929033,0.09009752945724626
22.525012,8.027789061473838,0.08969137111012719
22.5274,8.041809454272364,0.08927452382463304
22.52978,8.053827746324473,0.08887439213796794
22.532176,8.06146974983141,0.08848763165634989
22.534564,8.066737565539594,0.08809891705378574
22.536944,8.077080517927248,0.0876711523965045
22.53934,8.088214866247823,0.08724617206733803
22.541728,8.09734711382198,0.08683704124484017
22.544108,8.10582773509008,0.08642119859162671
22.546504,8.109792298186148,0.0860221945679287
22.548888,8.114688026841993,0.08561889388735067
22.551268,8.121026777736816,0.08522694558734671
22.553684,8.126713902325578,0.08482808907557889
22.556068,8.127233342436254,0.08443823711110912
22.558448,8.125890451427372,0.08405723962429625
22.560852,8.12333685560499,0.08369073215961953
22.563236,8.11971232459597,0.08333222691682207
22.565616,8.116367332840671,0.08296349345787349
22.568012,8.11516421145865,0.08257591162895361
22.570396,8.113821320449766,0.08219349570379708
22.57278,8.113130055746943,0.08181758451385011
22.575176,8.113090417350177,0.08144982679279592
22.57756,8.115192649326687,0.081063710982
22.579956,8.121718391676614,0.08063554915140518
22.58236,8.128895760332595,0.08021526607574565
22.584748,8.130718453055387,0.07984235907261121
22.587128,8.13174974984526,0.07946846527697009
22.589524,8.130918715515575,0.07910042021202561
22.591912,8.131298385999392,0.07871793780316763
22.594292,8.132609222042984,0.07833030264376727
22.596688,8.134059827713434,0.07793764931702979
22.599072,8.12992344002522,0.07756589465822963
22.601452,8.124204260471165,0.07718849996335703
22.603856,8.118205541663393,0.0768199832735039
22.606244,8.116211024348454,0.07642833320871874
22.608624,8.11542721184701,0.076021329930551
22.611028,8.117856204905484,0.07558702720676704
22.613416,8.114698204605288,0.07517072785078986
22.615796,8.105533902065842,0.07478860959998161
22.618192,8.099722174713172,0.07437553272666277
22.62058,8.09484161292028,0.0739591526078961
22.62296,8.089868503328772,0.07351348745469183
22.62536,8.082101897057928,0.07307645094331033
22.627748,8.070051550040528,0.07267285915391591
22.630128,8.06056238227699,0.0722373030792311
22.632532,8.054845098580804,0.07175530988678556
22.63492,8.046753627085868,0.07126374883924096
22.6373,8.044156601150982,0.07072677107622738
22.639696,8.042630510402736,0.0701835264904162
22.642084,8.043106520400904,0.06962958649564492
22.644464,8.0421395081601,0.06906402013994307
22.64686,8.040800408866957,0.06847551864427946
22.649248,8.046119238119122,0.06786786924902292
22.651628,8.060657175170451,0.06721257589341056
22.654032,8.069468349236255,0.06657741390222031
22.65642,8.080561163302194,0.06592414802025595
22.6588,8.091793746994991,0.06526761529235976
22.661204,8.10875309367332,0.06459331975060319
22.663592,8.1317187425909,0.06389067226993107
