Time,Force,Position
21.350944,4.744478370574054,0.04875337844076311
21.353328,4.694847056652083,0.04877421854767537
21.355724,4.648288778663168,0.048777899716201896
21.358108,4.608016342167222,0.04873591891205248
21.360492,4.575612539030083,0.04866786347517049
21.362888,4.5432087358929465,0.048599003808603096
21.365276,4.5126672638753655,0.04852870676783187
21.367656,4.483336496671283,0.048440256687184644
21.370052,4.4574508524525935,0.04836968713811117
21.37244,4.430354503420405,0.048316795313602064
21.374824,4.40083674476122,0.048301156723597125
21.37722,4.370108281288535,0.04830400948401632
21.379608,4.34687636412232,0.04824061308601722
21.381988,4.333235641807609,0.04815825560169055
21.384388,4.318523984306259,0.048084275327763874
21.386772,4.303020930871991,0.048000363732494125
21.389156,4.288169503743781,0.0479344688620095
21.391552,4.2723869110557935,0.047867565680612366
21.39394,4.2515291816883325,0.04783032251136204
21.39632,4.230811221947732,0.047782729239809224
21.39872,4.204366499221602,0.047744621861238845
21.401108,4.175919675749054,0.04771685461961784
21.403492,4.146401917089869,0.047698395463531156
21.405888,4.110318777683991,0.04775097624542972
21.408276,4.071442141598778,0.04780182708200473
21.41066,4.0353590021929024,0.04785300931170096
21.413056,3.9952716612941908,0.047925640720228854
21.415444,3.953321989275923,0.04799670130102599
21.417824,3.911000230205318,0.048025674559747884
21.420224,3.8688182407615725,0.04804534915778626
21.422608,3.831199531318102,0.048000353709566124
21.424992,3.795722692247909,0.047933174849440666
21.427388,3.751957910938328,0.04792856325638685
21.429776,3.6988814740309635,0.04792287597127745
21.43216,3.647667368243156,0.04791728249184372
21.434556,3.594451161708932,0.04792450247693532
21.436948,3.545099387040681,0.04792201908799153
21.439332,3.4956078427455695,0.04792958000498278
21.441728,3.450400039197013,0.047889968518888916
21.444116,3.402258969342261,0.047860009504537115
21.4465,3.354909295420427,0.04784340179343211
21.448896,3.3092821829912893,0.04784416095362264
21.451284,3.262863674629233,0.04783052499438924
21.453668,3.218587036640454,0.04779781034193256
21.456064,3.1732394634650367,0.047776097291333856
21.458452,3.124167228050506,0.04775447877013933
21.460836,3.076026158195754,0.04773668387694581
21.463232,3.028769032072537,0.04782648712269963
21.46562,2.984258180800412,0.048018051748866065
21.468004,2.9411431299390194,0.048369750814090055
21.4704,2.9016110758320113,0.04902476590003453
21.472792,2.8686878325841985,0.050035946680456585
21.475176,2.85284853877862,0.05140336372798114
21.477572,2.853766433333314,0.05318759111626179
21.47996,2.8698115025541995,0.05535554970670817
21.482344,2.907362135732865,0.05782572907136918
21.484744,2.9586894691373633,0.06059646419592905
21.487131999999995,3.030591200939864,0.06355585251735499
21.489516,3.120785691140228,0.06672386405305415
21.491912,3.2314148101117337,0.07004962738741242
21.4943,3.3606162267348245,0.07353158166571305
21.496684,3.507598545076582,0.07713677191705762
21.49908,3.6704522121892063,0.0809487473182587
21.501468,3.853600738446111,0.08485236888289888
21.503852,4.056904354220437,0.08885120225445438
21.506248,4.280642598765905,0.09293194188674857
21.50864,4.523372449843539,0.09706773260375798
21.51102,4.778483200736272,0.10122687269573341
21.51342,5.04304158513791,0.10542096912886988
21.515804,5.318957155996254,0.10954906766884374
21.518188,5.599294341370145,0.11348153366398273
21.520584,5.881354088236732,0.1171147022372722
21.522972,6.157688967975658,0.12037635308126689
21.525352,6.4248085316311565,0.1232295831787554
21.527752,6.676381611739883,0.125728227972081
21.53014,6.908031919756665,0.12796184488958465
21.53252,7.120690621241281,0.129962395708621
21.534916,7.310073975447177,0.13185649905801963
21.537304,7.4804657231209095,0.13359959104823035
21.539684,7.627070266836725,0.1352794075997318
21.542084,7.7592464840206485,0.13676506494843482
21.544472,7.871407381314011,0.13814300953726424
21.546852,7.969978569836646,0.13931285983636627
21.549248,8.04746350328208,0.14042292697532402
21.551636,8.105724512769871,0.14146122139272554
21.55402,8.146204620538995,0.1424362886377487
21.556416,8.17034684882843,0.14335430292538592
21.558804,8.187323083609098,0.14411899172076598
21.561184,8.193688201895602,0.14477033255715227
21.563584,8.18785941182211,0.14532347170595605
21.565972,8.170021808985855,0.14584520259035877
21.568356,8.14213027230501,0.1463442931535767
21.570752,8.104322675548568,0.1469200235101573
21.573144,8.067865553232483,0.14746000735157094
21.575524,8.031268661289541,0.14801168480005497
21.577924,8.000678071585845,0.1484765991243747
21.580312,7.976652862628844,0.14882859991377823
21.582696,7.958541408112476,0.1490655978885733
21.585092,7.93870739210341,0.1493220300939021
21.587484,7.927021548706873,0.14945349911253628
21.589868,7.908910094190503,0.14969895393925364
21.592264,7.89754911601806,0.1498851449995604
21.594652,7.886932311950291,0.15010294470075064
21.597032,7.881902501241193,0.1502498775788538
21.599432,7.875801755345456,0.15041722868342094
21.60182,7.867559139076443,0.15062470817025658
21.604204,7.861318623553845,0.15080027102069585
21.6066,7.852424380978775,0.15100394394412175
21.608992,7.8440419950828995,0.15121643062740808
21.611372,7.8413391503443135,0.15138518119016436
21.613768,7.845806090830233,0.15147175015638623
21.616156,7.854090241353882,0.15153981613444564
21.61854,7.868660233370503,0.15149944761590053
21.620936,7.877783001655313,0.15152494625063428
21.623324,7.8913292803135375,0.15146697428262265
21.625704,7.900079961546011,0.1514767318039716
21.628104,7.909202729830822,0.15150294503171935
21.630492,7.917486880354471,0.1515707407960798
21.632872,7.930706397930732,0.15156479424849728
21.635268,7.945788246626549,0.15153674763978825
21.637656,7.972882699800869,0.1513269731270503
21.64004,8.000676001109488,0.15108680305391178
21.642432,8.030099316112187,0.15080245214472446
21.64482,8.05738076074161,0.15055555424714068
21.6472,8.088107328356427,0.1502732954158226
21.6496,8.12563159414341,0.14989545533481904
21.651984,8.161013989557118,0.14955488103900816
21.654368,8.19374265791835,0.1492412958509309
21.656763999999995,8.227821800719942,0.14889730853218874
21.659152,8.257524654976361,0.14860109384786357
21.661532,8.286436113299864,0.1483144704676562
21.663932,8.317257124571164,0.14797369049425085
21.66632,8.346215804722908,0.14765682585517656
21.6687,8.37717658562107,0.14730852703844394
21.671096,8.406135265772816,0.1469925796239402
21.673488,8.437096046670979,0.14664589319786
21.675868,8.464751474210608,0.14632592001301858
21.678264,8.490312253205202,0.1460055226427674
21.680652,8.515500945147458,0.1456730970797566
21.683032,8.536825205223742,0.14539395603517755
21.685428,8.54920989675458,0.145240767748716
21.68782,8.559452717912144,0.145123306873219
21.6902,8.567693438323287,0.14503409867727995
21.692596,8.576353467615013,0.14492562804069728
21.694984,8.586783280227678,0.14476905162070633
21.697364,8.593116343548893,0.1446406117460079
21.69976,8.59949662869835,0.14447809628764366
21.702148,8.60974134571378,0.14426736923797678
21.704528,8.618403270863377,0.14406577015339742
21.706924,8.629207066386247,0.14383167951724618
21.709312,8.635494803737089,0.1436434502401377
21.711712,8.637918109221955,0.1435033817700182
21.714108,8.640760723587404,0.1433446631024394
21.716496,8.642439854967595,0.1431748024278596
21.718876,8.64146525929531,0.14302924266362466
21.721272,8.643983008436663,0.14282259124751523
21.723659999999995,8.646360987951157,0.1426218400364841
21.72604,8.651672233771846,0.14238442772818527
21.728436,8.653770674032616,0.14219617655761374
21.730824,8.652423991307996,0.14203530450516533
21.733208,8.654057796717813,0.14180351296304075
21.735604,8.653317414328878,0.14158332527911532
21.737992,8.651134009700966,0.1413643026785625
21.740372,8.650301079513412,0.14111660652603178
21.742772,8.647605818206301,0.14088973790858672
21.74516,8.644910556899191,0.14066254517768378
21.74754,8.64314646115186,0.14042527541036864
21.749936,8.64007911279241,0.14018357760078
21.752328,8.635568742193989,0.13994267287679515
21.754708,8.626821852677253,0.13973223436318646
21.757107999999995,8.622498473533932,0.13945141143359527
21.759496,8.61966533845783,0.13913593039056932
21.761876,8.61804290819523,0.13879900029875075
21.764275999999995,8.62056444905232,0.13840578770183154
21.766664,8.624716003603494,0.13797141942874352
21.769044,8.627005227035108,0.13755892482479554
21.771443999999995,8.631855629720578,0.1370978101184275
21.773828,8.634983470913356,0.13664999578966888
21.776212,8.641324117666045,0.1361560262404595
21.778608,8.649666865165154,0.13563421823334748
21.780996,8.656798907850762,0.1351347137876231
21.783376,8.664210489790092,0.13462156040412765
21.785776,8.672832776542919,0.13408600435926096
21.788164,8.678941105870132,0.13356682272503057
21.79056,8.682255938518011,0.1330743527101065
21.79296,8.687712641539168,0.1325520622456687
21.795348,8.691027474187045,0.13205990440454413
21.797728,8.695273472394701,0.13156024022200632
21.800128,8.702452736908555,0.13102803122395013
21.802516,8.711075023661383,0.13049435024093614
21.804896,8.712620072988324,0.13004760194778361
21.807292,8.711743712688266,0.1296429649537861
21.80968,8.707934086082012,0.1292714111991044
21.812064,8.69569674760951,0.12901324719212784
21.81446,8.682388473950372,0.12876919026508926
21.816848,8.662142732492203,0.12860546423342856
21.819232,8.633609048794646,0.12855083945442894
21.821628,8.601350702857976,0.1285326010984457
21.824016,8.56615909061511,0.1285465446489274
21.8264,8.532178183185744,0.12853804214857917
21.828796,8.49498447019646,0.1285762988351537
21.831184,8.457371448326597,0.12863319187278427
21.833568,8.420410052762794,0.12869163479662327
21.835964,8.383680974624468,0.12877173982068538
21.838352,8.348814227605695,0.12883374944457784
21.840736,8.30966373984037,0.1289568597232666
21.843132,8.270653021701905,0.12907432988438688
21.84552,8.22442529651069,0.12928978854592008
21.847904,8.1724235865057,0.12960374450224352
21.8503,8.119490710940934,0.12992807736152048
21.852688,8.0710738935482,0.1302151446230855
21.855068,8.021306601715105,0.13053528335053485
21.857468,7.972051166561209,0.1308659899160583
21.859856,7.930384825512399,0.13111655449793258
21.862236,7.8898819674488445,0.1313802802284566
21.864636,7.855617729050018,0.13159251570231106
21.867024,7.82880281512942,0.1317302356426584
21.869408,7.806736276806328,0.13185014359034475
21.871804,7.787323465535711,0.13194654397133251
21.874192,7.767863432436851,0.13207953582601434
21.876576,7.750125960830689,0.13220153080703198
21.878972,7.734111050717224,0.1323104947881267
21.88136,7.714883335043842,0.132470340842368
21.883744,7.697657720116877,0.13260284974476969
21.88614,7.681735357802029,0.1327419968033791
21.888528,7.6724709240324875,0.1328040957333856
21.890912,7.6702365058605935,0.13280680221893662
21.893312,7.678664217726842,0.13268175916340968
21.8957,7.69402939739212,0.13246748600281757
21.89808,7.712839700042789,0.13222764094649436
21.900476,7.732581168253236,0.13197893840620223
21.902864,7.7591203346358535,0.13164907857229238
21.905244,7.785240192137889,0.1313375556322701
21.907644,7.812151445572843,0.13102669348756135
21.910032,7.839574555686995,0.13072588300107285
21.912412,7.869791162480482,0.13039969624359407
21.914808,7.904011970766802,0.13002765293918547
21.917196,7.940374649426399,0.1296264487130247
21.919576,7.973105213645502,0.12929102906055762
21.921976,8.009979748984296,0.12890148325928846
21.924364,8.05337244324154,0.12844937858237299
21.926748,8.100350030111038,0.1279712357933471
21.929144,8.154776941458762,0.12742153637220793
21.931532,8.208644774299044,0.12689993328908816
21.933912,8.265073786393184,0.1263346385288868
21.936312,8.314565330688296,0.12585347108598308
21.9387,8.35674732013204,0.12544214993162922
21.941084,8.391572532896177,0.12513302681810654
21.94348,8.423604248980975,0.12485290115585856
21.945868,8.45405317319994,0.12457958436159831
21.948252,8.483570931859127,0.1243160753958194
21.950648,8.50829309309256,0.124103641738802
21.953036,8.537438764699408,0.12382754751774683
21.955416,8.564489787761223,0.12354925109653664
21.957816,8.594661068584335,0.12320259048595815
21.960204,8.622737700862414,0.1228551245128516
21.962584,8.647229440528239,0.12253904014074937
21.96498,8.668415826835533,0.12223889690908793
21.967368,8.698589003516517,0.12181308179670823
21.969752,8.725456826838967,0.12140517247850592
21.972148,8.748088131243104,0.12102237260152006
21.97454,8.769416183035126,0.12063604807780857
21.97692,8.785716319975919,0.12027475212741594
21.97932,8.802203448371815,0.1198762638123634
21.981708,8.816828245648157,0.1194959375131732
21.984088,8.83666794923083,0.11905611412923142
21.986488,8.858649523186779,0.11858980407938377
21.988876,8.885613686023584,0.11804370299795997
21.991256,8.912857388114112,0.11748726404068849
21.993656,8.940101090204639,0.11693186813235157
21.996044,8.970557597855077,0.11634167115609992
21.998424,9.002504349572737,0.11572197783457411
22.00082,9.032868309424565,0.11511113387195508
22.003208,9.063604356328726,0.11451821737720466
22.005592,9.088845957672833,0.1139959648636472
22.007988,9.10859311345689,0.11354065937376738
22.010376,9.128480038867805,0.11308238324417337
22.01276,9.151300230584914,0.11260013339395088
22.01516,9.163690609689361,0.11223184842687033
22.017548,9.171797248047255,0.11191130108828477
22.019928,9.180695282338064,0.11159045374019154
22.022328,9.184378410322541,0.11132507305582942
22.024716,9.189644330172856,0.1110577977114856
22.027096,9.19206953151559,0.11084206724352123
22.029496,9.19100238804469,0.1106736471548523
22.031884,9.187001978267597,0.11053070693749123
22.034264,9.184863899610058,0.11037497192781338
22.03666,9.178022771325384,0.11028341597406319
22.039048,9.175046074906687,0.11016092160091036
22.041432,9.171929608861126,0.11004384793078127
22.043828,9.165740106882511,0.10995668184681469
22.04622,9.160481770463672,0.10986316154162626
22.0486,9.151591319604341,0.10982034292299507
22.051,9.139907372065673,0.10979606489693139
22.053388,9.130505064527144,0.10974313913833911
22.055772,9.126457432921805,0.10963198786939549
22.058168,9.11705512538327,0.10957883875986567
22.060556,9.106302343404382,0.10954774677552676
22.06294,9.099693532545185,0.10947565818088015
22.065336,9.100022189485017,0.10934373313212088
22.067727999999995,9.098348745678434,0.10922966772292474
22.070108,9.099888107431767,0.109080417913188
22.072508,9.100496303625317,0.10893763505468285
22.074895999999995,9.107390341311842,0.10873149958400269
22.07728,9.117776723812003,0.1084799962037922
22.079676,9.12895450224508,0.10822773057576014
22.082063999999995,9.138130179931743,0.10799414965387193
22.084448,9.15079820243204,0.10771550293409307
22.086848,9.155457821946671,0.10750705116081544
22.089236,9.163470016648075,0.10726046480053357
22.09162,9.169759649856784,0.10702025967538012
22.094016,9.175769743811774,0.10679168882799024
22.096404,9.185272182580398,0.10651881698704008
22.098788,9.199198131722442,0.10619670499841811
22.101188,9.215126181610897,0.10585946855233311
22.103572,9.228912361126076,0.10554511886728422
22.105956,9.249403691014805,0.1051540961595198
22.108352,9.267520833104781,0.10476474883954312
22.11074,9.28726798888884,0.10434541975681606
22.113124,9.301428151314223,0.10396080651285593
22.115524,9.316147392247052,0.10355508137448448
22.117912,9.331146172433597,0.10314003630562564
22.120296,9.344422391127448,0.1027305482560841
22.122692,9.35010951571621,0.10237115819014816
22.12508,9.355936409931836,0.10200812392955372
22.127464,9.359528885975564,0.10163979441191032
22.129864,9.3626095053401,0.1012613615137167
22.132252,9.362756858398436,0.10090426841828402
22.134636,9.369609361830326,0.10047341183649258
22.137032,9.369664167090045,0.10009023477759256
22.139424,9.370789907536404,0.09969584515268076
22.141804,9.369541460184006,0.09930162578296828
22.144204,9.365639285779137,0.09891786237895205
22.146592,9.359315701747269,0.0985659903128576
22.148976,9.350338390662927,0.09822460781338804
22.151372,9.342711554018942,0.09786251476591538
22.153764,9.33266330774796,0.09753150552840809
22.156144,9.325408558156315,0.09718546280661991
22.158556,9.314801233377894,0.09687418043592812
22.160940000000004,9.310200210838723,0.09651872563188582
22.16332,9.306530353859328,0.0961584630119608
22.165728,9.302580957626214,0.09580858893114327
22.168116,9.302495993259072,0.09543518212395456
22.170492000000003,9.306275460757904,0.09503691851574603
22.172908,9.302837921203986,0.09469522782309309
22.1753,9.302985274262324,0.09433963413110172
22.17768,9.304715419186497,0.09398538308842441
22.180092,9.307656268924168,0.09361580300837154
22.18248,9.305894069034702,0.09330045076463465
22.184856000000003,9.30799630101121,0.09296091094847383
22.187272,9.309958763360859,0.09262618107196394
22.189660000000003,9.315645887949625,0.09227421450313669
22.19204,9.324917905150638,0.09191039216390784
22.194456,9.333817835299316,0.091531222259543
22.196844,9.342158686940554,0.09117200565025921
22.199224,9.349428603395156,0.09082263213042681
22.201628,9.356838289476613,0.0904688766755983
22.204016000000003,9.362525414065376,0.09011939858431472
22.206396,9.374218840893388,0.08973148713344464
22.208800000000004,9.381908066228567,0.08937191876869026
22.211188,9.391459622683302,0.08900602440494788
22.213568,9.398217682458705,0.08865157519389198
22.215964,9.403253180741409,0.08830163778908859
22.218348,9.409359614210752,0.08794398142490745
22.220732,9.422683054732845,0.08753296164648781
22.223136000000004,9.435866725628077,0.08712866666461311
22.225520000000003,9.446396669470838,0.08673138184626272
22.2279,9.459580340366072,0.08632912651325735
22.2303,9.474254255328525,0.08590300369695197
22.232688000000003,9.489719566223895,0.08547947893427751
22.235068,9.507186977865683,0.08504473185197152
22.237464000000003,9.517577152081582,0.08465453107971856
22.239852,9.523171728871729,0.0842876812877209
22.242232,9.529138392714213,0.08393692822384824
22.244636,9.535803904690999,0.08356175454644087
22.247024000000003,9.54419197816048,0.08318498495463827
22.249404,9.550717720510406,0.08281520752147972
22.251808000000004,9.55589298841997,0.08246290958485938
22.254196,9.553711479649927,0.08216455220707988
22.256576000000003,9.552181597185943,0.08187234809359571
22.25898,9.547718448415761,0.08159564137454191
22.261368,9.550984163377528,0.08128353488414104
22.263748,9.55490150464535,0.08097852364702614
22.266148,9.556397436286177,0.08069942403400673
22.268532,9.5608266342332,0.08040806522698037
22.270912000000003,9.563812809941247,0.08010934885295373
22.273312,9.566519446395573,0.07981923177055142
22.275696000000003,9.565361650983924,0.07954645142031434
22.278076,9.565786647438111,0.07927731351584923
22.280472000000003,9.565420247959382,0.07900701345944328
22.28286,9.566124783667291,0.0787302480214231
22.28524,9.572695851987591,0.07842570115229036
22.287644,9.583922748106781,0.07810679357804864
22.290032000000004,9.59729151459925,0.07777412962699831
22.292412,9.612243072957554,0.07744624467650639
22.294816,9.629336501689135,0.07710598914636038
22.297204,9.64801272228655,0.07676951868467666
22.299584000000003,9.669761978817025,0.07641611279445083
22.30198,9.693932644974495,0.07603776106694501
22.304368000000004,9.718522620012546,0.07564673671738793
22.306752000000003,9.7406911854236,0.07527854795167868
22.309148,9.754059951916066,0.074949560202036
22.311536000000004,9.761562185796144,0.07464471158465044
22.313916,9.77055466374344,0.07431890820150952
22.316312000000003,9.772190365011127,0.07403971904282626
22.3187,9.774849779637211,0.07378334793467042
22.32108,9.777648963890153,0.07352159143538708
22.323484,9.783241644822432,0.07325231844943607
22.325872000000004,9.78790316019493,0.07298620108826304
22.328252,9.793635610754068,0.0727138701753591
22.330656,9.796155255753288,0.07246319668794
22.333044,9.797743735192736,0.07221542452859744
22.335424000000003,9.794676386833286,0.07197938511100238
22.33782,9.787604836981004,0.07176180831388008
