Time,Force,Position
20.505688,0.47116085117024,0.0
20.508084,0.45412033184050987,0.0
20.510472,0.4400130788169748,0.0
20.512852,0.42404349467388314,0.0
20.515248,0.40658366646357225,0.0
20.51764,0.3872615071337048,0.0
20.52002,0.3671479518709192,0.0
20.522416,0.3459634614214951,0.0
20.524804,0.32785200690512634,0.0
20.527188,0.3108114875753962,0.0
20.529584,0.2934914289919456,0.0
20.531972,0.27710253596827333,0.0
20.534356,0.26043410369088066,0.0
20.536752,0.24069263548043257,0.0
20.53914,0.22509513838967837,0.0
20.54152,0.20842670611228567,0.0
20.543916,0.19469154014108814,0.0
20.546304,0.1810961437967508,0.0
20.548684,0.17229634487816525,0.0
20.55108,0.1662900426389147,0.0
20.553468,0.15707093483974854,0.0
20.555848,0.15320650297377503,0.0
20.558248,0.14827113592116303,0.0
20.560636,0.1473399703613847,0.0
20.563016,0.14547763924182805,0.0
20.565412,0.14841090554802322,0.0
20.5678,0.14985392778699924,0.0
20.5702,0.14850345334664028,0.0
20.572596,0.14487133890614404,0.0
20.574984,0.14231015965228636,0.0
20.577364,0.14081991558506718,0.0
20.57976,0.13839850595806968,0.0
20.582148,0.13518570039815414,0.0
20.584532,0.13332336927859748,0.0
20.586928,0.13039010297240233,0.0
20.589316,0.12479014751228666,0.0
20.5917,0.11813221896697822,0.0
20.594096,0.11146132832022401,0.0
20.596488,0.10336037753593955,0.0
20.598868,0.0938959902098504,0.0
20.601264,0.08779714017198278,0.0
20.603652,0.07805321359217321,0.0
20.606036,0.06830928701236363,0.0
20.608432,0.05792669622794193,0.0
20.61082,0.05303855100357306,0.0
20.613204,0.042144103539953626,0.0
20.6156,0.03553339682288832,0.0
20.617992,0.03371828753157483,0.0
20.620372,0.0379094804795119,0.0
20.622768,0.03781693268089483,0.0
20.62516,0.040517881561612734,0.0
20.62754,0.04787465824122224,0.0
20.62994,0.05374119085361258,0.0
20.632328,0.05783794014506334,0.0
20.634712,0.06337771167549011,0.0
20.637112,0.07181648978531464,0.0
20.6395,0.08084671027150818,0.0
20.641884,0.0908663843892997,0.0
20.64428,0.10180236610755454,0.0
20.646668,0.1201061907489954,0.0
20.649052,0.14463377709584907,0.0
20.651456,0.17475942304494915,0.0
20.653844,0.21321644134594175,0.0
20.656224,0.25822208657644147,0.009963571617012286
20.65862,0.312443047890369,0.019345024642122385
20.661008,0.3808619141685791,0.02840093927412573
20.663388,0.45668098723890355,0.037336415137146445
20.665784,0.5443237774747566,0.045851038307658305
20.668176,0.6360614211441911,0.05434879131716734
20.670556,0.7409732564195128,0.06270190233225406
20.672952,0.8467671395685006,0.07134997665690297
20.675344,0.9553054017107112,0.08012165972472919
20.677724,1.0798113521381438,0.08859740636727939
20.68012,1.2222870915972162,0.09675867492000592
20.682508,1.3731414252364238,0.10485926612494946
20.684888,1.5330732011900683,0.11285579101900084
20.687284,1.7036198853536118,0.12065051943300475
20.689672,1.8809642676893237,0.1283413211692842
20.692056,2.0620805340923924,0.13599750952691603
20.694452,2.2383086552710916,0.1437244364186862
20.69684,2.4123495801061403,0.15141386174782548
20.69922,2.5870440271051165,0.15900284400909373
20.70162,2.7539189584313974,0.16660874826456804
20.704004,2.9150236966596434,0.16420076231943942
20.706384,3.060255190259154,0.16242860478417254
20.708788,3.1918478574018216,0.16102688868878468
20.711176,3.3121758858864023,0.15979483513361478
20.713556,3.4162566868320403,0.15913077960811145
20.71596,3.513401915836518,0.1585176152358476
20.718348,3.6026804073400576,0.15804267948602063
20.720728,3.692939182089489,0.15714718152606105
20.723124,3.778731016353001,0.1560658545219776
20.725512,3.851256111212008,0.15525336314961982
20.727892,3.903996307748062,0.15484962724468604
20.730296,3.9461234919320867,0.1545175425612026
20.732684,3.9767990460029203,0.1543427269227309
20.73506,3.9954166696248787,0.15445452623293654
20.737468,4.0123589535823845,0.15453582790436948
20.739856,4.030838703435352,0.15447245219787759
20.742236,4.048993588064225,0.1543058751183952
20.744632,4.06403011078967,0.15411558039787338
20.74702,4.069802199745573,0.1540897676393817
20.7494,4.076552676089499,0.15397219025020625
20.7518,4.083163382806564,0.15386976785926273
20.754184,4.091728968441803,0.1537748172560071
20.756564,4.108395504861327,0.15350347309895862
20.75896,4.128507164266242,0.15316554159656465
20.761348,4.153973499604352,0.152638573664259
20.763728,4.1788354304646464,0.15204053702717538
20.766132,4.201882252033627,0.1514242932005743
20.76852,4.21761951875124,0.15098328062006888
20.7709,4.229212814349162,0.15067190546211304
20.7733,4.239036326626143,0.15046009783952735
20.775688,4.257612415993465,0.15007193008813477
20.778068,4.278702462786404,0.1496433346193992
20.780464,4.30100321439284,0.14916153641654395
20.782852,4.3232114182006605,0.1486157970733753
20.785236,4.332662843425303,0.14836861848043476
20.787632,4.3306607426788855,0.14842817145163342
20.79002,4.3282865548801315,0.14845729300010319
20.7924,4.323071648573799,0.1486238324943613
20.794796,4.323815822678474,0.14868301440931572
20.797184,4.324512774954906,0.1488104258024175
20.799564,4.326001123164257,0.14892772969518686
20.801964,4.332052751373881,0.1488794262830177
20.804352,4.3297238895455,0.14902844314781089
20.806732,4.323949904731727,0.1492396684926299
20.809132,4.318315689544813,0.14943510813779332
20.811516,4.313053561410237,0.14965829492586077
20.8139,4.310445160328136,0.14982827749861724
20.816296,4.315006544470543,0.1498560337263688
20.81868,4.322640964546003,0.1497958661443462
20.821076,4.334187038315681,0.14957464616345525
20.823476,4.339913801301211,0.14943924222182395
20.825864,4.343266376487987,0.14932912409907637
20.828244,4.345548016488125,0.14925128434571627
20.830648,4.347550117234542,0.14919742272900272
20.833036,4.358863873578741,0.1489306271267114
20.835416,4.378697889587807,0.1484572715935007
20.837812,4.400254467089568,0.14796581715795096
20.8402,4.425722698285546,0.14731469472505723
20.842584,4.447094180190074,0.1467207246125744
20.844976,4.467441948736206,0.1460987377212463
20.847364,4.484065055043224,0.14555903021559205
20.849748,4.49654419023055,0.14514247697836852
20.852144,4.514610318776544,0.1446043571020808
20.854532,4.535609713628734,0.14399165006901377
20.856912,4.55381561180159,0.14344334457861127
20.859308,4.572580588481885,0.14285191556108007
20.861696,4.586689737363289,0.14236295377963293
20.86408,4.594839805833686,0.141968428705361
20.866484,4.602617787251746,0.14154824414938186
20.868872,4.607834589415947,0.14122816593410972
20.871252,4.615285809752042,0.1408977953140061
20.873648,4.624180052327114,0.14056507804539922
20.876036,4.638289201208519,0.1400958689100385
20.87842,4.657101399717058,0.13947581583737692
20.880816,4.671537309680426,0.1389268722869807
20.883204,4.680665765538844,0.13846854675660528
20.885588,4.685790019904429,0.13810819835326035
20.887984,4.6864907638966,0.13787698995940456
20.890372,4.689845234941246,0.1376033951281734
20.892752,4.6918492315455325,0.13738168376718465
20.895152,4.69785742964265,0.1370662518868051
20.897536,4.7057279588593275,0.1367152147376446
20.89992,4.706149163597777,0.13650564371581247
20.902316,4.704568267589809,0.13634337260509186
20.904704,4.702987371581843,0.1361805933991925
20.907084,4.696982965200461,0.13614735017079982
20.909476,4.693632285871554,0.13607127359160032
20.911864,4.690513923968125,0.1360349267417176
20.91426,4.689629980236591,0.1359902644547529
20.916656,4.6900965109454145,0.13589329232151628
20.919044,4.69005118497504,0.1357800144201428
20.921424,4.689354232698609,0.1356618393326556
20.92382,4.684653078929343,0.13563647957223782
20.926208,4.675388645159803,0.1357460922425469
20.928588,4.670919808816015,0.1357584932752058
20.930992,4.669896095457619,0.13572540712316117
20.93338,4.670083086912723,0.13565304656875712
20.93576,4.672411948741103,0.1355238897323789
20.938156,4.675532206502401,0.13539014646057998
20.940544,4.67851269463684,0.13526672677059373
20.942924,4.678420146838223,0.13521670695037677
20.945328,4.680749008666603,0.13509009715975986
20.947716,4.690806734226929,0.13480832646767396
20.950096,4.703006330160535,0.13447200339820314
20.952492,4.720932689079669,0.13403272096850105
20.954884,4.7440739543051365,0.1334663361193283
20.957264,4.768565693970962,0.13285882448529632
20.95966,4.795478843263786,0.13217542898535795
20.962048,4.819598495877274,0.13154651509237988
20.964432,4.840645112557708,0.13098650267124642
20.966836,4.8632745211039765,0.13042124282579712
20.969224,4.887906030396664,0.12981969248552086
20.971604,4.910395669316072,0.12926715063539593
20.974012,4.935958344168537,0.12864801450702767
20.976396,4.954304011968253,0.12818978555929963
20.978776,4.967854082342216,0.12781897593775982
20.981172,4.97991390864896,0.12750589322297057
20.983564,4.9907630301422055,0.12722923547370144
20.985944,4.998678885329255,0.12701123569747416
20.98834,5.009807546076221,0.1267148406330463
20.990728,5.02452109943544,0.1263682143587198
20.993108,5.036673473540802,0.12611086419926695
20.995508,5.045613042086248,0.1259332063205697
20.997896,5.054133301751113,0.12578834442042558
21.000276,5.053574223243673,0.12583006070389596
21.002676,5.051804439922733,0.1259068303432819
21.005064,5.0465423117881585,0.12607878325704552
21.007444,5.038858774026584,0.12632126380048392
21.00984,5.032106401824789,0.1265485036179527
21.012228,5.029078691862108,0.1267174895987407
21.014608,5.0243284204067304,0.12690418903975986
21.017004,5.015294408204799,0.12718963664586677
21.019392,5.007191561562645,0.12746332825393458
21.021776,4.996155448614295,0.1277900831213962
21.024172,4.996480313838389,0.12787374969614046
21.02656,5.003602877234653,0.12783680278598641
21.028944,5.0159403469372466,0.1276893700758514
21.03134,5.032282018132677,0.12746669645845102
21.033724,5.049694624514744,0.12721850410553862
21.036108,5.062963259777117,0.12705756820683115
21.038504,5.068782570561265,0.12700869229005826
21.040892,5.069806283919661,0.12704122547385296
21.043288,5.070038601345138,0.12707804497211386
21.045684,5.072692328397613,0.12704536655693643
21.048072,5.079490026569783,0.12692285266329933
21.050452,5.085496328809033,0.1268051734510051
21.052848,5.091921939928865,0.12665564884888741
21.055236,5.100768960675692,0.12643564638012925
21.057616,5.102678513623491,0.1263476419209779
21.060016,5.102865505078594,0.12627941436087445
21.062404,5.104775058026394,0.12619241410746998
21.064784,5.109897416534111,0.1260297280024002
21.06718,5.121165846907938,0.12574093258360283
21.069568,5.13443637802818,0.1254131420864946
21.071952,5.137556635789479,0.12529354231466808
21.074348,5.135089900192108,0.12525897027200575
21.076736,5.125545927168847,0.1253625756227876
21.079116,5.112277291906472,0.12552030467359068
21.081516,5.100219361457597,0.12564306841738623
21.0839,5.095378438061471,0.12561914702858543
21.086284,5.0994770832107905,0.12543362828047588
21.08868,5.109721800226223,0.12512549213529178
21.091068,5.126252358734623,0.12469247124636361
21.093464,5.139709881309971,0.1243237302248352
21.09586,5.157451144631873,0.12387001950378144
21.098248,5.175052638326912,0.1234264112841994
21.100632,5.1985206646343425,0.12289424275220212
21.103028,5.2238510220613295,0.12234529552890808
21.105416,5.258540256914343,0.12161213451945459
21.1078,5.291227391020939,0.12091058615427866
21.110196,5.321121028448201,0.12024893841725648
21.112584,5.351945831435241,0.11958176335645343
21.114964,5.372760130690196,0.11908658812135531
21.117368,5.3903616243852355,0.1186552274820657
21.119756,5.411175923640193,0.11815466410051859
21.122136,5.433852554014705,0.11762722269377775
21.124532,5.459881759575993,0.11701861498261698
21.12692,5.488844231443477,0.11636599825527101
21.129304,5.517806703310962,0.11571978774040145
21.1317,5.537410297752419,0.11525426247179289
21.134088,5.551938755514403,0.11488295070561272
21.136468,5.561392076596916,0.11460007776889412
21.138868,5.566282117679155,0.1144253048287514
21.141256,5.572103324321171,0.1142394682115557
21.143636,5.570707523910438,0.1141820294023491
21.146036,5.569591262753425,0.11410613152928692
21.148424,5.56339986491694,0.11411477376048157
21.150804,5.555206366334039,0.11415383988022405
21.153204,5.543660292564362,0.11426036250248882
21.155592,5.53504748510088,0.11432518135573858
21.157972,5.527645382450897,0.11436103507744066
21.160368,5.519451883867996,0.1143977919233436
21.16276,5.519266788270762,0.11431217529781054
21.16514,5.52443636860672,0.11412795642175312
21.167536,5.532259675995153,0.11392217294659744
21.169924,5.543016249689782,0.11367799400823135
21.172304,5.553772823384411,0.11343472320533156
21.1747,5.560385425959345,0.11325975459334321
21.177088,5.562854057414585,0.11315244098500625
21.179472,5.571748299989657,0.11292833775149898
21.181868,5.583715578497784,0.11265604413265334
21.184256,5.600757993685383,0.11230419926920764
21.18664,5.614075746633868,0.11199236964463921
21.189036,5.625251629209078,0.1117195360433379
21.191424,5.640571482903982,0.11137617447846884
21.193804,5.6556117973451645,0.11105127197745536
21.196204,5.666787679920373,0.11077490382181723
21.198588,5.675961461749165,0.11052930404024561
21.200972,5.687137344324374,0.11025478372154986
21.203368,5.699244392459362,0.10997220230625984
21.205756,5.711071901340629,0.10970785693666481
21.20814,5.716753338355785,0.10954043215988182
21.21054,5.719641278691606,0.1094060762936242
21.212928,5.719456183094373,0.10932128339605036
21.215308,5.714475490071386,0.10929658402357366
21.217704,5.705350825928707,0.10933850288489513
21.220092,5.6979487232787225,0.10936810995158684
21.222476,5.692828260628876,0.10935166599767057
21.224872,5.693853869845141,0.10923998008079962
21.22726,5.691806443128351,0.10917584795056123
21.229656,5.687617146038282,0.1091487736401442
21.232052,5.682636453015296,0.10912246564180171
21.23444,5.6816599614851455,0.10904011025862057
21.236824,5.681894174768492,0.1089306659324873
21.23922,5.67998651767856,0.10885794427233933
21.241612,5.677007925401991,0.1088035472911921
21.243992,5.678173304245117,0.10868334654423865
21.246392,5.679618222341961,0.10854540849551012
21.24878,5.678129874132612,0.10844610457985929
21.25116,5.672916863684149,0.10838619921924189
21.25356,5.669054327676045,0.10829042297025927
21.255944,5.672269029093829,0.10809056476826233
21.258328,5.673481629765198,0.10791870678650073
21.260724,5.67162119450351,0.10779338466090473
21.263112,5.67055215517474,0.10766625764893702
21.265496,5.670042194353412,0.1075034088026377
21.267892,5.66566780166611,0.107389863654832
21.27028,5.663155740098364,0.10725643214481831
21.272664,5.658501808157341,0.10716063042873517
21.27506,5.655710207335876,0.10704525086953702
21.277452,5.652127210581492,0.1069307671298156
21.279832,5.64719373938675,0.10685202834483273
21.282232,5.639746310766392,0.10678458931576658
21.28462,5.634580522146171,0.1066717890872548
21.287004,5.63076520796631,0.10652339340733091
21.289404,5.630582008226946,0.10629541677605443
21.291788,5.634682549234134,0.10599882454860696
21.294172,5.640924960614601,0.10566799987810517
21.296568,5.648937155316006,0.10527782014757707
21.298952,5.65881168113697,0.10486851290125115
21.301336,5.665752940651736,0.1044949931502831
21.303732,5.673253278673945,0.10409229946470729
21.30612,5.683826652629208,0.10364681751867591
21.3085,5.700685868077444,0.1031082302696631
21.3109,5.720106262779535,0.10251161599644315
21.313288,5.738455722294989,0.1019304257848295
21.315672,5.755082620317747,0.10135138756564507
21.318068,5.767984856101391,0.10080879726835867
21.320456,5.77823336483256,0.10028369812533404
21.322836,5.786759312071032,0.09976825217870544
21.325236,5.794633633003448,0.0992425819538469
21.327624,5.801856327629805,0.09870808527309904
21.330008,5.810661814121998,0.09817231052180163
21.332404,5.814252394307858,0.09771357761872278
21.334792,5.818494600799778,0.09726476340951674
21.337176,5.817242361731643,0.09690891748338802
21.339572,5.8095645115436785,0.09665482190588429
21.34196,5.799465251728715,0.09645055584959586
21.344344,5.786665043033034,0.09631211529381113
21.346744,5.774004603964214,0.09616481898678264
21.349132,5.7638581223210075,0.09600955212291705
21.351516,5.750219295864166,0.09591940081393549
21.353912,5.7375116349671025,0.09582023794002494
21.356304,5.718006275897871,0.09579108773395244
21.358684,5.698221377574918,0.09577633772009035
21.36108,5.6858858037301925,0.09569975895963101
21.363468,5.682210259177191,0.09553982480590954
21.365852,5.683330312049942,0.0953354963614072
21.368248,5.685381530482471,0.09512309868347073
21.370632,5.6891553104076955,0.09490450738166463
21.373016,5.6973053788780925,0.09466692732697415
21.375412,5.709319879214464,0.09439480735816388
21.3778,5.720403213991055,0.0941296434733577
21.38018,5.7356305198873425,0.09381154395071244
21.382576,5.75006642985071,0.09349398151223558
21.384968,5.768506541306912,0.09313066260735504
21.387348,5.785735947949614,0.09278609761845996
21.389744,5.802825584965456,0.09244783506319182
21.392132,5.823919423474131,0.09206486254625477
21.394516,5.84394232679617,0.09169759238073683
21.396912,5.86331360381215,0.09132279431848064
21.3993,5.885338607880605,0.09093587705118941
21.401684,5.905221741575783,0.09058259306522089
21.40408,5.929620933442992,0.09020072386244175
21.406472,5.954299664563922,0.08980710587381409
21.408852,5.970458136019986,0.08948696626734802
21.411248,5.980750074863659,0.08922657152584801
21.413636,5.984756172214362,0.08904576095370081
21.41602,5.992486931804177,0.08883986889768458
21.418428,5.999566065087936,0.08862574752143626
21.420816,6.003200075386301,0.08842284611806031
21.4232,6.0039008193784715,0.08824790657001091
21.425596,6.009676700050114,0.08802045163936528
21.427984,6.017314911841313,0.08778345174348748
21.430368,6.024953123632512,0.08754705127077403
21.432764,6.032219248371375,0.08728751975799282
21.435152,6.043117487550733,0.08696374947410065
21.437532,6.056437136357088,0.08659836092340878
21.439928,6.070967489976942,0.08621715551851032
21.442316,6.08978158434335,0.0857867925966075
21.4447,6.10766451314998,0.08536245297552349
21.447096,6.1221023189712165,0.08494585096445258
21.449484,6.136540124792454,0.0845297868848321
21.451864,6.150326304307631,0.08410610541644532
21.454264,6.1606201390091755,0.08373574584346062
21.456652,6.173707470390054,0.0833476286434516
21.459032,6.187074341024653,0.08294415161834034
21.461428,6.207286131659664,0.08244275025414484
21.463816,6.221910928936005,0.08197458201509565
21.4662,6.236395956585486,0.08151525310924619
21.468596,6.251812149794744,0.08105161040493568
21.470984,6.264295076697807,0.08060931711472152
21.473364,6.267838435055425,0.08024313981512593
21.47576,6.26644642636043,0.07991809448160371
21.478148,6.265194187292296,0.0795859431159787
21.480528,6.266455905649776,0.07925588056740265
21.482932,6.270371351059732,0.07892107018978554
21.48532,6.27349540053677,0.07858501545180448
21.4877,6.272475478894112,0.07829026779395702
21.4901,6.2662406509451225,0.07804713702132861
21.492488,6.257072556689938,0.07782298631156692
21.494872,6.252979599114226,0.07755530538946839
21.497268,6.248374784859315,0.07727012858763802
21.499656,6.2459118409776835,0.07696314092222768
21.50204,6.246941241909686,0.07660760812062153
21.504436,6.250252282841826,0.07622407940654595
21.506824,6.25742775563994,0.07581943161917865
21.509208,6.2578980780645015,0.0754957301946056
21.511604,6.263303767541677,0.07513849609587453
21.513996,6.268057830712794,0.07477135193225644
21.51638,6.271601189070411,0.07442200572411065
21.518776,6.277146648174447,0.07405617565207163
21.521168,6.287767243957953,0.07364734971421795
21.523548,6.296525508621904,0.07324268323110729
21.525948,6.304212838099215,0.07284932100776127
21.528336,6.305102469404357,0.07249698881527701
21.530716,6.300125568097108,0.0721817913611649
21.533116,6.294869127536141,0.07188091052508093
21.535504,6.288681521415395,0.07158246978683608
21.537884,6.284496016041066,0.0712686836517383
21.540284,6.287108208838905,0.07091470291890037
21.542668,6.280641063464439,0.07062807788061663
21.545052,6.2737546092093925,0.07036215812878889
21.547448,6.265377910887126,0.07012919478239116
21.549836,6.252997011072025,0.06992332606331429
