Time,Force,Position
20.781232,0.5189763079011137,0.0
20.78362,0.4947660033468775,0.0
20.786,0.46948476360600266,0.0
20.788396,0.44420352386512774,0.0
20.790784,0.41813088819133476,0.0
20.793164,0.38847335990528875,0.0
20.79556,0.3556030260593271,0.0
20.797948,0.3285992248257558,0.0
20.800328,0.2992982134154982,0.0
20.802732,0.27401697367462335,0.0
20.805116,0.24873573393374845,0.0
20.8075,0.22345449419287355,0.0
20.809904,0.19617115370558186,0.0
20.812292,0.17396294989776237,0.0
20.814672,0.15869221388897178,0.0
20.817068,0.14006890269340536,0.0
20.819456,0.12652072817731116,0.0
20.821836,0.11218115772829886,0.0
20.824232,0.09942437914512278,0.0
20.82662,0.08946109724128169,0.0
20.829,0.07828711052394187,0.0
20.831404,0.06897545492615864,0.0
20.833792,0.06520357085880221,0.0
20.836172,0.06776285425479066,0.0
20.838576,0.07595445697982293,0.0
20.840964,0.09080209239229442,0.0
20.843344,0.11188645161162451,0.0
20.84574,0.14065055687678915,0.0
20.848132,0.17277901578954022,0.0
20.850512,0.21317415919152233,0.011493733829587342
20.852908,0.2656687672970148,0.023001979225557766
20.855292,0.3383637908903022,0.03370329295435539
20.857676,0.4398267114644927,0.04332676127098418
20.860072,0.5673112541684946,0.052115382154282255
20.86246,0.7078283229936545,0.060691650326043144
20.86484,0.864683271298505,0.06927635738854408
20.86724,1.0348956109486078,0.07793465145662512
20.869624,1.2272179190343055,0.08650493035517552
20.872004,1.4444436922349326,0.09493992422308978
20.8744,1.684151520923492,0.1032551225771375
20.876792,1.9496014324881423,0.11141810670196076
20.879172,2.241632044690045,0.11938698275525347
20.881572,2.548512188162288,0.12725705923478706
20.88396,2.869497688800197,0.13501885555007953
20.886356,3.1968596828718256,0.14280198424790227
20.888752,3.538094716683643,0.15049920410502254
20.89114,3.893901638369949,0.15810579762538435
20.89352,4.259252533079518,0.16564054400989428
20.89592,4.643508174096243,0.17298760224778498
20.898308,5.026930884925415,0.16873047620474682
20.900688,5.401793697692955,0.1643450760208342
20.903084,5.753757041949852,0.1607231368663976
20.905472,6.069410616949002,0.1582615695832101
20.907856,6.349543922765454,0.15675683241722915
20.910252,6.615152562535659,0.15554368806026944
20.91264,6.8808575418202205,0.1542021566782881
20.915024,7.14316841166337,0.15266965384173
20.91742,7.3885842193772575,0.1511646253965411
20.919808,7.609330775259562,0.1497449148913519
20.922188,7.799541546697895,0.14846226808336624
20.924588,7.960984421155322,0.14736321765687777
20.926972,8.09179517165442,0.14656256865454376
20.929356,8.207616621256317,0.14586582107434
20.931752,8.313197145558524,0.1452415061099044
20.93414,8.41445049900167,0.14454054214742834
20.936524,8.499458520763744,0.14388529026209892
20.93892,8.562122360806875,0.1433208408532703
20.941312,8.603885041370038,0.14283458056625295
20.943692,8.622090939542895,0.14254730497950752
20.946088,8.632800291409279,0.14238148503994297
20.948476,8.641505646671378,0.14233894387833324
20.95086,8.657518660926975,0.14231737361641184
20.953256,8.688942180818222,0.14214328554259634
20.955644,8.726698764030683,0.14183631893057236
20.958028,8.762409816384222,0.14139975288364035
20.960432,8.775727569332707,0.14115108748596525
20.96282,8.772284342205184,0.1410850789055875
20.9652,8.764929461383442,0.14109823591041454
20.967604,8.762508051756447,0.14114241420341894
20.969992,8.770374789257385,0.14113854307077559
20.972372,8.787273643102385,0.1410490574512559
20.974776,8.811995804335819,0.14080054177011816
20.97716,8.829083545493791,0.14057615170195523
20.97954,8.834392895456613,0.14043565832895138
20.981948,8.831601294635146,0.14037243847257996
20.984332,8.82606152310472,0.14039847143422232
20.986712,8.826154070903335,0.14042532090229337
20.989112,8.83150685097866,0.14043835552636333
20.991496,8.841235919599153,0.14041447998064624
20.99388,8.849289648555196,0.14037113222641068
20.996284,8.852362684488252,0.14032927651190577
20.998668,8.84496058183827,0.1403756031842671
21.001052,8.832203803255092,0.14050045547312864
21.003456,8.82084282508265,0.14065710888080285
21.005844,8.809666942507441,0.14086641392776986
21.008224,8.806312471462796,0.1410139594017948
21.01062,8.811106173030677,0.14105148187057054
21.013008,8.81701803161344,0.14103969559639362
21.015384,8.817390118665779,0.141054384471826
21.01778,8.812874060493748,0.14109747776203216
21.020168,8.800349599336048,0.14124345890041923
21.022548,8.78605535485741,0.14143408112062994
21.024944,8.780141600416778,0.14153712110105238
21.027332,8.78209647933495,0.14154451044402042
21.029712,8.786612537506981,0.14150213938188042
21.032116,8.793876766387974,0.14137105694647817
21.034504,8.800676360418013,0.14119961541240425
21.036884,8.805101766649296,0.14103904244698662
21.039284,8.805662741014606,0.14092293286807953
21.041668,8.806595802432254,0.14082130703327875
21.044048,8.811113756462154,0.14068721421632374
21.046444,8.826992688664498,0.14039953362348634
21.048832,8.84012534601575,0.14010709540430827
21.051212,8.853724534075829,0.1397641777835965
21.053616,8.862016268030953,0.13946488498637322
21.056004,8.871798246053297,0.13913225676736993
21.058384,8.880229749635284,0.13882926540806645
21.06078,8.88689146989633,0.13857207176192102
21.063168,8.893553190157377,0.13831385097744495
21.065552,8.901146075978204,0.1380460576709171
21.067948,8.911579680306607,0.13771492319395418
21.070336,8.92136165832895,0.13738194922981636
21.07272,8.924206168552267,0.13713497313413245
21.075116,8.920113210976556,0.1369730034441548
21.077504,8.912947217467789,0.1368516757391699
21.079884,8.902568418399104,0.13677681594571495
21.08228,8.888697274516785,0.13676049295023995
21.084668,8.877107770634604,0.13670663325306928
21.087048,8.867939676379418,0.13660945146877768
21.089456,8.859610199885395,0.1364757507320184
21.091844,8.849418392271815,0.13636069875954843
21.094224,8.831730038351767,0.13635239963878312
21.09662,8.815764245924415,0.1363313842547262
21.099008,8.798587748683563,0.13633098224021392
21.101392,8.788488488868598,0.13624144905733943
21.103788,8.775316193120581,0.13619162262911372
21.106176,8.75827946550659,0.1361851936070332
21.108556,8.740591111586541,0.13617651132376796
21.110956,8.724625319159186,0.1361551309565214
21.113344,8.705726260425639,0.13616826097742987
21.115724,8.68668743206523,0.1361869934617316
21.11812,8.664994876652347,0.13622790162254914
21.120508,8.647306522732297,0.13621894951229277
21.122888,8.633762139931942,0.13615383860968225
21.125292,8.621288692318224,0.13607298289645445
21.12768,8.610537806197202,0.13597906289233855
21.130064,8.600997624889681,0.13586304863510532
21.13246,8.588384407649105,0.13578786007486468
21.134844,8.57241861522175,0.13576625269614906
21.137228,8.553240017234481,0.13579187944534915
21.139624,8.536063519993627,0.13579140833575792
21.142008,8.517024691633221,0.13581151065566718
21.144392,8.501710525511927,0.13579184070530267
21.146788,8.48625658976377,0.1357781784613677
21.149172,8.469871488455837,0.13577263768601378
21.151568,8.457630358267595,0.135710166594993
21.153964,8.449672968825912,0.1355849240073154
21.156352,8.442786514570864,0.13544372063389154
21.158732,8.436179599569538,0.13528997501150838
21.16114,8.435718756434321,0.13505490827577676
21.163524,8.435257913299104,0.13481954897566445
21.165908,8.440384063522556,0.13452836913977725
21.168304,8.44564998337287,0.13423218743356147
21.170692,8.452638464715882,0.1339249791602853
21.173072,8.46083765087239,0.13359652911177156
21.175476,8.4702475418424,0.1332476180936832
21.177864,8.477655332065993,0.13292162315882472
21.180244,8.487996388595779,0.13256217139398085
21.182644,8.504343747364816,0.13212997535544702
21.185028,8.524415768372965,0.13166070646590428
21.187412,8.544627559007976,0.1311882971219425
21.189808,8.572987522255513,0.13061430226053852
21.192196,8.59548095289066,0.1301076078342751
21.194576,8.619836714645364,0.12958399437062107
21.196972,8.640979670840153,0.12910591875102162
21.19936,8.657187259982331,0.12868507573820737
21.20174,8.671532518004952,0.12828332032840747
21.204136,8.687088480841071,0.12786105415800036
21.206524,8.702644443677187,0.1274398573819825
21.208908,8.711262938714277,0.1270983040080098
21.211312,8.721743764870922,0.12674016433551358
21.2137,8.727568763228678,0.12642616799079778
21.21608,8.729669099347317,0.12614616016366698
21.218476,8.729115708413484,0.12588626121134386
21.220864,8.72935371341257,0.12562446423381274
21.223244,8.727869156918958,0.12537374143957997
21.225644,8.732530672291457,0.12504940984892277
21.228032,8.735329856544398,0.12474214336809013
21.230412,8.734544148185087,0.12446290002457674
21.232808,8.731244482400161,0.12419624531605086
21.235196,8.721007348816206,0.12400369259566721
21.23758,8.702110185940526,0.12389605322673111
21.239976,8.682281857505068,0.12379690724448464
21.242368,8.657006305337799,0.12374131641700911
21.244748,8.631079126864472,0.12368225573158348
21.247148,8.608504523577922,0.12357308350420361
21.249536,8.582717114731457,0.1235071880604907
21.251916,8.555858770698352,0.12345471020528351
21.254316,8.526858556291971,0.12343084837604829
21.256704,8.50316579599054,0.12336889531682846
21.259084,8.47826233087561,0.12332664796409254
21.261484,8.453730952813018,0.12330067802129314
21.263872,8.430642596989403,0.12327656210079363
21.266256,8.405132831538788,0.12329457261428457
21.268652,8.37547909496848,0.12336515142062571
21.271044,8.34498674063701,0.12347314120691881
21.27342,8.310210645558987,0.12363730233638486
21.275828,8.275946407160161,0.12381117048010015
21.278212,8.242985421373453,0.12399166896040635
21.280596,8.212119084131777,0.1241773885607284
21.282992,8.191355798420801,0.12427687612597692
21.285376,8.178274154613531,0.1243315085967815
21.28776,8.174504166404045,0.12430192278229338
21.290156,8.17855558972512,0.12422158141026646
21.292544,8.18684353196451,0.12411786836545217
21.29492,8.196015417935431,0.12404118170245539
21.297316,8.210634527638163,0.12392047659043018
21.299704,8.226417120326152,0.12381393123615068
21.3021,8.246715771186174,0.12367249913512578
21.304504,8.265291860553496,0.12354232750711358
21.306888,8.2835884106671,0.12342435965869507
21.309272,8.306168701527255,0.12325022837235569
21.311664,8.33061132350697,0.123059710203096
21.314052,8.360268851793014,0.1228037870721734
21.316432,8.393511272691315,0.12251954461704523
21.318828,8.429314872843472,0.12218851631466401
21.321216,8.466980804115186,0.12184162612102158
21.323596,8.503855339453981,0.12149645396685471
21.326,8.538215917367161,0.12116371850710243
21.328388,8.571133473041366,0.1208294288178935
21.330768,8.597672639423983,0.12054863223292953
21.333164,8.620906452448068,0.12028409721392533
21.335552,8.638832811367202,0.12005918747416518
21.337932,8.654664521741301,0.11983059075358607
21.340336,8.671846706555762,0.11957893217793553
21.342724,8.685443998757968,0.11935217418151095
21.345104,8.701462700587173,0.11908947561494501
21.3475,8.71738885461776,0.11880002603846689
21.349888,8.730149424916675,0.11851888089326182
21.352272,8.742537908163252,0.1182223349641276
21.354676,8.756835944357627,0.11787882958226134
21.35706,8.766338383126254,0.11757926052182846
21.359444,8.775468734842542,0.11726480142046362
21.36184,8.781945359506354,0.11696757994047946
21.364228,8.790471306744827,0.11661910767781267
21.366608,8.79941656286388,0.1162554457295474
21.369004,8.807710192676874,0.11588840112101334
21.371392,8.820287563236423,0.11547244084215229
21.373772,8.833935868982612,0.11504295661936179
21.376168,8.850796980288717,0.11457740884014898
21.378556,8.870079501221817,0.11407528838015173
21.380936,8.889129704729442,0.11355259327680174
21.383332,8.90524664193087,0.11305515691108613
21.38572,8.919221708759023,0.11258377837582233
21.3881,8.929472113348062,0.11214166260619239
21.390496,8.93986228756396,0.11169186962575776
21.392884,8.945317094727248,0.11128941567687528
21.395264,8.95249446338323,0.11088083757031611
21.39766,8.959671832039215,0.1104721708789773
21.400048,8.969502927747671,0.11005085853852183
21.402428,8.977843779388909,0.10965970289851482
21.40484,8.987115796589926,0.10926109572950309
21.407228,8.997318979350723,0.1088574943073925
21.409608,9.007242622857797,0.10846472964548376
21.412012,9.015676022297653,0.108102909088806
21.414396,9.02047730729701,0.10779309048874354
21.41678,9.024347426736592,0.10748963342012881
21.419176,9.021140308750283,0.10725174023700977
21.421564,9.02086645707017,0.10699024689973263
21.423944,9.02017329650948,0.10674637285132936
21.426344,9.019852223001122,0.1065185717127658
21.428732,9.018040905425547,0.10631800255510304
21.431112,9.019954250089087,0.10609313460869753
21.433508,9.01986549400621,0.10588492452187281
21.435896,9.021639069042887,0.10566492763625134
21.438292,9.028627550385897,0.10539407093833335
21.440688,9.034684866169128,0.10512852428225684
21.443076,9.035015418966829,0.1049038197082415
21.445456,9.03571805881687,0.10469483873823804
21.447852,9.030134857173941,0.10454831282766555
21.45024,9.025343051463928,0.1044014024869362
21.452624,9.022693116127192,0.10423189905142093
21.45502,9.017761540790318,0.10409033413990093
21.457408,9.014692296573001,0.10393713951951665
21.459788,9.010272577915323,0.10380604873799534
21.462184,9.008925895190703,0.10364674234583687
21.464572,9.008230838772143,0.10349238571173891
21.466956,9.01326254533911,0.10329781436843137
21.46936,9.014941676719303,0.10314245161285165
21.471748,9.010754275487102,0.10303200578694159
21.474128,9.005915247948845,0.10291653332314295
21.476532,9.004661113022841,0.1027837142475911
21.47892,9.003546747723698,0.10264585661190138
21.4813,9.009230080596724,0.10245841004767635
21.4837,9.011700607909834,0.10230370466431242
21.486088,9.012820660782586,0.10217152808692238
21.488468,9.019667476640866,0.10200194767011009
21.490864,9.02995941548454,0.1018204340228635
21.493252,9.042812533582072,0.10160259385490472
21.495636,9.063813824292131,0.10131550953716173
21.498032,9.083232323136352,0.10102926750728405
21.50042,9.102371282726855,0.10075528175303645
21.5028,9.120718846384442,0.10048063401481579
21.5052,9.140416884482384,0.10018718987746014
21.507588,9.15881166996821,0.0998830554793926
21.509968,9.174552728401563,0.09958969679234797
21.512364,9.193786131648555,0.09925689258634379
21.514752,9.211436743029704,0.09892572999788565
21.517132,9.230437828851217,0.09857390452959293
21.519528,9.253722655419281,0.09817956883571473
21.521916,9.274213985308014,0.0978001201845483
21.5243,9.297406264077463,0.09738396630027558
21.5267,9.320226455794574,0.09695458622878961
21.529088,9.339881063780012,0.09652816624089565
21.531468,9.36251615989989,0.0960515356176037
21.533872,9.381985672288096,0.09557509479140149
21.53626,9.393214464265153,0.09513671383135304
21.538644,9.407703283630372,0.09464061671677047
21.54104,9.418467440756478,0.09416438105836508
21.543424,9.423784374150777,0.09371238220789516
21.545808,9.431522717172069,0.09323238723935276
21.548204,9.434093375715271,0.0927627379970613
21.550588,9.44029614869897,0.0922501680373289
21.552968,9.442774259443555,0.09175605860110204
21.555372,9.447673779815139,0.09123343434788449
21.55776,9.45606564500036,0.09067377102427193
21.56014,9.459010286453768,0.09013581459626087
21.56254,9.462514006414617,0.0895792195985546
21.564928,9.464994013017073,0.08900117666340082
21.567308,9.471106134060022,0.08838496965695225
21.569712,9.481501995849529,0.08773344846292966
21.5721,9.48230666278753,0.08713081342011401
21.574484,9.482040394538892,0.08653746671596346
21.57688,9.47977202554384,0.08595642775575613
21.579268,9.477084347668203,0.08539089994137421
21.581648,9.475048296098628,0.08483049900223986
21.584044,9.477016446021883,0.08424328819906246
21.586432,9.474281546318005,0.08370554490760342
21.588816,9.47033594180063,0.08317900784624366
21.59122,9.465319402096615,0.08265887506003144
21.593604,9.456158891272905,0.08216689657933045
21.595988,9.45430793530056,0.08165145319361886
21.598384,9.45110650488786,0.08115531168713393
21.600772,9.449627635967854,0.08065687086903377
21.603156,9.443445717420715,0.08020436125661701
21.605552,9.434702619619719,0.07978296335367858
21.60794,9.426983235177117,0.07938273834179893
21.61032,9.418565002600216,0.079006888800937
21.61272,9.413032814501264,0.07864755517412488
21.615108,9.402657807148321,0.07833971491732292
21.617492,9.391863490914794,0.07804662177387907
21.619888,9.389449664719272,0.07772605893605831
21.622276,9.385405824829673,0.07743159754644836
21.624656,9.38159430236555,0.07715741299586827
21.627052,9.376432305461067,0.07690031535105762
21.62944,9.37527451004942,0.076623012683037
21.631824,9.377422067996307,0.07634963759806657
21.63422,9.383573827436026,0.07605630600375045
21.636608,9.394800723555216,0.07573572439326241
21.638988,9.412545778592856,0.07539770034298679
21.641384,9.432153164750053,0.07505396729475826
21.643772,9.444962852735078,0.07473842943374451
21.646156,9.458284397399302,0.07443547085400978
21.648552,9.47039523725003,0.07414474206791476
21.65094,9.489303775272925,0.07382700719873829
21.653324,9.509934874788517,0.07350961452353046
21.655728,9.53363901023716,0.07317637755742742
21.658116,9.553199174566114,0.07286609703311799
21.660496,9.56968630296201,0.07257347097360486
21.662892,9.58389179135777,0.07229865765276301
21.66528,9.595955409380252,0.07203875209980869
21.667664,9.601733185909765,0.07181718869162106
21.67006,9.608581897625914,0.07158801641486923
21.672448,9.615570378968926,0.0713538779911587
21.674828,9.622558860311935,0.07111951959936999
21.677228,9.624052896094891,0.07092569962959316
21.679616,9.61982016889232,0.07075076033725243
21.681996,9.613166032062749,0.07059936592121469
21.684396,9.6048818815391,0.07047367027313059
21.686784,9.591802133589699,0.07036375550340149
21.689164,9.57723214157308,0.07027406061641761
21.69156,9.571461948475044,0.07015078880563129
21.693948,9.563038028324534,0.07002919125055668
21.696332,9.554614108174025,0.06990730345690607
21.698728,9.542185986530681,0.06980310079177442
21.701116,9.528035303394642,0.06969825737323261
21.7035,9.51015995801949,0.06960129957044742
21.7059,9.495357648577391,0.06948855841813567
21.708288,9.481486504695072,0.06937357538176414
21.710668,9.473109806372806,0.06922056754327156
21.713064,9.46459333842368,0.06907183882041795
21.715452,9.461152007154025,0.06889901663754225
21.717836,9.460643942190567,0.06871582375247952
21.720232,9.460135877227108,0.06853237255773707
21.72262,9.459627812263648,0.06834866232447481
21.725004,9.460470221740549,0.06814870354913126
21.7274,9.465037293456561,0.06794063575818961
21.729792,9.467742034053018,0.06773616582327745
21.732172,9.46672211241036,0.06753919645614087
21.734568,9.463560320394427,0.06735472881907276
21.736956,9.466544600244607,0.06714062237026151
21.73934,9.461520477109115,0.06696074832497402
21.741736,9.460221016212738,0.06677345086132892
21.744124,9.461063425689638,0.06657344470298857
21.746508,9.463256309606894,0.0663578414210708
21.748908,9.466380359083931,0.06614048915662787
21.751296,9.470435574120748,0.06592099115294672
21.753676,9.476632659530837,0.06568916149840769
21.756076,9.48352859307523,0.06543492642796644
21.758464,9.487351490686569,0.06519563128677884
21.760844,9.492664632365127,0.06493656661073655
21.763244,9.491319845498374,0.06469297837707587
21.765632,9.48746110120601,0.06444552771973384
21.768012,9.489888198406618,0.06416743054637944
21.770412,9.497669971540413,0.06386076419580335
21.7728,9.504520579114434,0.06355512101127074
21.775184,9.510859330009254,0.06323831295171066
21.77758,9.518828094598158,0.06289725144214288
21.779968,9.530289204000693,0.06252915906069857
21.782356,9.546965219709564,0.0621365567004129
21.784752,9.558054242059765,0.06175379365234749
21.787136,9.569562573290543,0.06135577091619462
21.78952,9.580419278215267,0.060952196032720805
21.791916,9.588482486460652,0.060552798610934655
21.7943,9.597756399519541,0.06014468679371593
21.79668,9.606378686272368,0.05972927250754975
21.79908,9.616211677838695,0.059304268700711746
21.801464,9.625253273472104,0.05887731748458707
21.803844,9.634946495411572,0.05845957761698076
