Time,Force,Position
22.781792,0.17755571208624266,0.0
22.78418,0.17569338096668602,0.0
22.786564,0.17662454652646434,0.0
22.78896,0.17606546801902348,0.0
22.791348,0.1816524613776934,0.0
22.793732,0.18430618843016813,0.0
22.796128,0.18588898029600434,0.0
22.798516,0.18146546992259002,0.0
22.800896,0.17331729731006246,0.0
22.803292,0.16223585839133964,0.0
22.80568,0.1539479161519518,0.0
22.808064,0.14286647723322907,0.0
22.81046,0.13085387275472796,0.0
22.812848,0.1187014986493666,0.0
22.815232,0.10640935491714507,0.0
22.817628,0.09005863392048481,0.0
22.820016000000003,0.07864327997643655,0.0
22.8224,0.0670881564055281,0.0
22.824796,0.05660396802125821,0.0
22.827184000000003,0.049666500222229334,0.0
22.829564,0.04501067242333773,0.0
22.83196,0.03928390943780759,0.0
22.834348,0.034907620892636396,0.0
22.836732,0.03360436828052061,0.0
22.839128,0.03150971973548669,0.0
22.841520000000003,0.032488107123508164,0.0
22.843904,0.03854163119100187,0.0
22.846304,0.0458058600719943,0.0
22.848692,0.055584046378601294,0.0
22.851076,0.062149427125292686,0.0
22.853476,0.07006528231234305,0.0
22.855864,0.07691020231275485,0.0
22.858244,0.08454651824608476,0.0
22.860644,0.0929742301123328,0.0
22.863028,0.10033100679194232,0.0
22.865412,0.10746261998943643,0.0
22.867808,0.11072980132095707,0.0
22.870196,0.11292604746583917,0.0
22.872576,0.1160534591704996,0.0
22.874976,0.11450883933167541,0.0
22.877364,0.11175351467935246,0.0
22.879744,0.1117062928511093,0.0
22.882144,0.10881119857192614,0.0
22.884532,0.10569094081062763,0.0
22.886912,0.10229114379560866,0.0
22.889312,0.09768064196709096,0.0
22.8917,0.08756854063515851,0.0
22.89408,0.07731666967636587,0.0
22.89648,0.06734433797129362,0.0
22.898868,0.060584811826136974,0.0
22.901248,0.05168341530770327,0.0
22.903648,0.04469872568043125,0.0
22.906036,0.03700803397549627,0.0
22.908416000000003,0.028525946337643198,0.0
22.910816,0.021114793886428652,0.0
22.913204,0.013983180688934522,0.0
22.915588,0.010715999357413887,0.0
22.917984,0.00851975321253178,0.0
22.920372,0.005446717279476399,0.0
22.922756,0.006572028237719972,0.0
22.925152,0.007697339195963545,0.0
22.92754,0.01011874882296103,0.0
22.929924,0.014456865341120194,0.0
22.93232,0.016878274968117675,0.0
22.934708,0.017577123102418726,0.0
22.937088,0.016413640117163134,0.0
22.939484,0.016413640117163137,0.0
22.941872,0.016413640117163137,0.0
22.944256,0.016413640117163137,0.0
22.946652,0.016413640117163137,0.0
22.94904,0.016413640117163137,0.0
22.951424,0.015567868412639983,0.0
22.95382,0.015567868412639983,0.0
22.956208,0.01739202750518461,0.0
22.958588,0.017392027505184607,0.0
22.960988,0.017392027505184607,0.0
22.963376,0.017392027505184607,0.0
22.96576,0.018005481784230493,0.0
22.968156,0.020426891411227974,0.0
22.970544,0.019915034732030282,0.0
22.972924,0.01878972377378671,0.0
22.97532,0.01566231206912629,0.0
22.977708,0.011324195550967121,0.0
22.980092,0.008196783846306694,0.0
22.982496,0.00586076807456438,0.0
22.984884,0.005526853049238918,0.0
22.987268,0.0059079899028075325,0.0
22.989664,0.007080522689294258,0.0
22.992052,0.007080522689294258,0.0
22.994432,0.00722744625951636,0.0
22.996832,0.00811664807654418,0.0
22.99922,0.010817167469147007,0.0
23.0016,0.025896690818980682,0.0
23.003996,0.05320639869795387,0.0
23.006384,0.10398370339624255,0.01330446217140624
23.008768,0.17584536731386136,0.025371449440162383
23.011164,0.27098048265233043,0.03636210697273897
23.013552,0.3827692928933534,0.047178342676942514
23.015936,0.513874574890636,0.05750144183356454
23.018336,0.6672768167786167,0.06739677233819612
23.020724,0.8373980749998567,0.07703886885952049
23.023108,1.025115139342529,0.08637213397544719
23.025504,1.2226991460746872,0.09573146549730838
23.027892,1.433734987808584,0.10500541598840345
23.030276,1.6592463779026145,0.11422772563548449
23.032676,1.901327964901813,0.12338818383945432
23.035064,2.1639749004977835,0.1323986402033115
23.037444,2.446357616730594,0.14131243673286611
23.03984,2.75672588381262,0.1499794277512398
23.042232,3.0884074653118323,0.15844425128961592
23.044616,3.437503549050982,0.16665273754449883
23.047012,3.7999211774543555,0.1745364337850545
23.049404000000003,4.152011020333028,0.18223361965877327
23.051784,4.487349362425037,0.1897793555462843
23.054184,4.794762217013042,0.18391119640073622
23.056572,5.072666792231208,0.1792090181440193
23.058956,5.321061192221665,0.17554244808171074
23.061352,5.556054770754364,0.17187192364565052
23.06374,5.769032824507953,0.16862343145324357
23.066124,5.966279299117536,0.16569936277311995
23.068524,6.154078140218216,0.16293774804630412
23.070912,6.329216542250075,0.16041273154051788
23.073296,6.499982447452501,0.15776257197963234
23.075692,6.657763048362012,0.15513692287481629
23.07808,6.799300213448318,0.1525054280749357
23.08046,6.9241293078604675,0.14983152053095006
23.08286,7.026803107866646,0.14722052853451909
23.085248,7.109603253466996,0.14459863729172337
23.087632,7.165033198355043,0.142140083442293
23.090028,7.199748975218223,0.13980902840550985
23.09242,7.218357294169321,0.13766918003032652
23.0948,7.221320894201421,0.13584256764780703
23.097196,7.225585850987768,0.1341474284315532
23.099584,7.2349693745660915,0.13255852852278507
23.101968,7.253335896802367,0.1310209682883713
23.104368,7.28445730176395,0.12945606964858497
23.106752,7.318417529375242,0.12791378415672386
23.109136,7.342180261799346,0.12656354035213385
23.111536,7.361239944596315,0.12529674638148028
23.113924,7.368194475116165,0.12416381610822524
23.116304,7.366955507053112,0.12308490438864475
23.118704,7.354961861153301,0.12210554926538014
23.121092,7.332166315588488,0.12126613638614696
23.123476,7.306110742635516,0.120515888465973
23.125876,7.278889790839418,0.11985935228235944
23.12826,7.2451487842670055,0.11938388150617557
23.130644,7.203584470306159,0.11908356317196549
23.133044,7.152893596344762,0.11895129930721192
23.135436,7.094007327942595,0.11898313939151918
23.137816,7.024551477300906,0.11919605594587981
23.140212,6.946016288486909,0.11954866509121163
23.142604,6.858541531127467,0.1200556216561292
23.144984,6.760125104476161,0.12074090394450504
23.147384,6.656354001891664,0.12152554837224064
23.149772,6.548811015239808,0.12239317472857074
23.152152,6.434143569333822,0.1234054710668186
23.154552,6.321151463092289,0.12445689593594618
23.15694,6.209043300582293,0.12558002681392227
23.159324,6.1022425921772445,0.12665538497567716
23.161724,5.998327928250149,0.12777183701521577
23.164112,5.889570445069058,0.12903403868588387
23.166496,5.785840876739195,0.13027558767817127
23.168896,5.6852768921410055,0.13153380565523107
23.171288,5.588577339408789,0.13273483675393907
23.173672,5.494811052982768,0.13389964265516519
23.176072,5.407423155848333,0.13500962570801578
23.17846,5.329858770990881,0.13602467287213352
23.18084,5.261838359156691,0.13695057642508895
23.183236,5.1988458621737275,0.13786742243124397
23.18562,5.143023150415273,0.13872173508843105
23.188008,5.09637232462774,0.13944242824664102
23.190404,5.063177125557684,0.13992702909166485
23.192792,5.037291481338994,0.1403101426249873
23.195176,5.010195132306805,0.14074402292169944
23.197572,4.982167617714838,0.14120118544324728
23.19996,4.956654060548486,0.14163509669685884
23.202344,4.932863064874828,0.1420479878134366
23.20474,4.916661163306258,0.14231591599498478
23.207128,4.897898082483831,0.1426749943947432
23.209512,4.880997332780961,0.14300800056527158
23.211908,4.871406137929458,0.14321291435410394
23.214296,4.863397734943791,0.14340358509336917
23.21668,4.860324699010736,0.1434805659123976
23.219076,4.853759318264045,0.14366917554461847
23.221464,4.853060470129743,0.14372421537331814
23.223848,4.855574427555359,0.14369285883861213
23.226244,4.858228154607833,0.14365084300102227
23.228632,4.857669076100391,0.14369453725840078
23.231016,4.866980731698174,0.14351953959510338
23.233412,4.880668675841128,0.14327771243512938
23.2358,4.890864275170447,0.14314340953047172
23.238184,4.901851270432684,0.14300894687974777
23.24058,4.9149801360681975,0.14282036729224848
23.242968,4.934115303942962,0.14249501294778877
23.245352,4.95604396849706,0.14211586079496605
23.247748,4.977181237118241,0.14174011344465828
23.250136,4.998318505739421,0.14136436609435055
23.25252,5.017313903987326,0.14104821018507752
23.254916,5.038171633354787,0.14069229240715495
23.257304,5.06289379458822,0.1402545090045659
23.259688,5.085753624702097,0.13985170131014588
23.262092000000003,5.107961828509917,0.13944625537238778
23.264484,5.126165830824903,0.1391334270585931
23.266868,5.146791242766887,0.13873786242559522
23.269268,5.155543819857229,0.13860621973422496
23.271656,5.161502900268236,0.13852841417328365
23.27404,5.166950124000046,0.13843646475467283
23.276436,5.175749922918632,0.13824979814593238
23.278824,5.175470383664912,0.13827102429933646
23.281208,5.173747822172215,0.13829397934227797
23.283604,5.172584339186959,0.1382747421837384
23.285992,5.159687790976923,0.13850365492598493
23.28838,5.144789142020469,0.13877591642783368
23.290776,5.131892593810433,0.13899808742884673
23.29316,5.119135815227258,0.13920848672690453
23.295548,5.110243468510055,0.13934146786261226
23.297944,5.1053553232856865,0.13938677509149622
23.300332,5.103400444367512,0.13937322918103937
23.30272,5.105170227688452,0.13929630527882741
23.305116,5.109314198808146,0.1392039905000009
23.307504,5.113038861047259,0.13914117402138662
23.309888,5.118206545525349,0.13907774461473305
23.312284,5.126726805190215,0.13892760180933736
23.314672,5.136038460787997,0.13877228556913404
23.31706,5.152939210490869,0.138476360963201
23.319456,5.172493687246213,0.1381468562985991
23.32184,5.193351416613673,0.1378296577351917
23.324228,5.215652168220109,0.1375167762719991
23.326624,5.242748517252298,0.1371149750802204
23.329012,5.270356722963683,0.13672983247097648
23.3314,5.297545619794489,0.13637121394239252
23.333796,5.332603149984101,0.13584385924290962
23.336184,5.368731615360352,0.13529151949859397
23.338572,5.398853778497354,0.13486799150321846
23.340968,5.428044776074575,0.13446186205302946
23.343352,5.454442276972463,0.13410715966788564
23.34574,5.475764641190877,0.13386383408084032
23.348136,5.493222573543319,0.13369371218887413
23.350524,5.506955843656647,0.1335854543668682
23.352908,5.51910632190414,0.13349062823356384
23.355308,5.533817979405489,0.13331734846362978
23.357696,5.5470866146678635,0.13314547243385977
23.36008,5.56407991216935,0.13292281613568255
23.362476,5.585356950417391,0.13261229313907102
23.364864,5.606122131986235,0.13229023651876465
23.367252,5.622231485756187,0.13203807678765425
23.369656,5.640622479526277,0.13173644454327443
23.372048,5.658222077363448,0.13144319637639873
23.374444,5.677032380014118,0.13112391401624426
23.37684,5.697844783411204,0.13077322876754985
23.379228,5.723732323487762,0.13033437903140813
23.381628,5.752692899497376,0.12984729973287465
23.384024,5.784726511440046,0.129313488637761
23.386408,5.823045964875687,0.1286656368390758
23.388804,5.862296583871106,0.12800725535491198
23.391204,5.901686972493384,0.12734088627229787
23.393592,5.943219231488941,0.1266324210305326
23.395988000000003,5.987684756790692,0.12588106984337727
23.398384,6.036014713958417,0.1250770269502116
23.400772,6.082482340006585,0.12430347225040489
23.403168,6.133605793853645,0.12348871810463015
23.405572,6.18752274438004,0.12264722153837974
23.407956,6.233850600801348,0.12191814251979552
23.410356,6.274172154983405,0.1212916456273957
23.412756,6.317846284352237,0.12061161689379424
23.415144,6.369528816706739,0.11982207043562365
23.417544,6.4142738812622095,0.11913548345847177
23.41994,6.458367319511624,0.11845015113402417
23.422336,6.500318887387761,0.11781010554475463
23.424732,6.54161882895784,0.11717384991157606
23.427124,6.580544582729164,0.11655532777242275
23.42952,6.615745674261375,0.1159846478428557
23.43192,6.64922420430089,0.11543620406084673
23.434304,6.678698532847572,0.1149477917505162
23.4367,6.710734040648111,0.1144097447948738
23.439096,6.745702814754846,0.11384159376891992
23.441484000000003,6.779740423301802,0.1132848685103833
23.443868,6.809913599982784,0.1127725996377788
23.446264,6.837433049611292,0.11228457051118435
23.448652,6.8683050744265755,0.11174605387019805
23.451036,6.891588005136772,0.11129041404112221
23.453432,6.911565582488436,0.11085093528881425
23.45582,6.932474325399877,0.11040087486365326
23.458204,6.956595873871234,0.10990510622758357
23.4606,6.976293911969178,0.10948465928403371
23.462988,6.991196352641369,0.10911978657247967
23.465372,7.010242764433254,0.10869962628033425
23.467768,7.025704283612886,0.10830499601754921
23.470156,7.042795816486597,0.10787024491023085
23.47254,7.055231521561419,0.10747604547186254
23.474936,7.06631675219588,0.10711262178201279
23.477328,7.077401982830341,0.10674993325653996
23.479708,7.082201371971831,0.10646914992551859
23.482108,7.088071696299959,0.1061741889479145
23.484496,7.090449675814452,0.10593939230110101
23.48688,7.09110509383625,0.10571463949008701
23.489276,7.093622842977603,0.10547543686694684
23.491668,7.103357599171704,0.10515105709467008
23.494048,7.113232124992667,0.10482062335469233
23.496448,7.118683140440214,0.10455538389064586
23.498832,7.126276026261039,0.10426147908365467
23.501216,7.1363828695074805,0.10396063234914724
23.503612,7.147560647940559,0.10364572500588859
23.506,7.156596556000359,0.10336036345294748
23.50838,7.165772233687021,0.10306838655202558
23.51078,7.170664170627128,0.10283148920301115
23.513168,7.176627042753874,0.10258233084601732
23.515548000000003,7.186826433798932,0.10231805769404545
23.517948,7.192462544843714,0.10212270238509397
23.520332,7.200892152567832,0.10190573163062637
23.522716000000003,7.211463630665226,0.1016626597872301
23.525112,7.22189533913576,0.10142672433882088
23.527504,7.240614989845682,0.1010956543347188
23.529884000000003,7.259194870928744,0.10077317340581621
23.532284,7.280056392011943,0.10041905446709465
23.534672,7.2994276690279225,0.10009937411447223
23.537056,7.317076384551206,0.09978833434462463
23.539452,7.326716697088823,0.09955861793865986
23.54184,7.335146304812939,0.09934872169223051
23.544224,7.343855451790779,0.09912521688385503
23.546624,7.353355994701533,0.09890273137552165
23.549012,7.359923271306093,0.09870689467130933
23.551392,7.368492648657071,0.09849288930950806
23.553792,7.378132961194686,0.09826675393092284
23.55618,7.3901946833593,0.09800378943473703
23.55856,7.40546921108383,0.09770135576995878
23.56096,7.417950242129024,0.09741923185589349
23.563348,7.429128020562102,0.09712523923725037
23.565732,7.445800244555233,0.0967633316215123
23.568128,7.464474569294781,0.09638520289706463
23.570516,7.480215627728135,0.0960331195915193
23.5729,7.496096455788348,0.09567527845345791
23.5753,7.508252621609448,0.09534453121251968
23.577688,7.523761362617324,0.09497521868250713
23.580072,7.536197067692145,0.09463661195598368
23.582472,7.54639835459507,0.09428879479899384
23.58486,7.557810346311495,0.09392433100813567
23.58724,7.574157705080531,0.09351965945631456
23.589636,7.590505063849569,0.09311417027076788
23.592024,7.607783588178382,0.09270333097240867
23.594408,7.626133047693836,0.09228377314832005
23.596804,7.647695312769207,0.09183113408399386
23.599192,7.668186642657936,0.09139338625288293
23.601572,7.686815641427112,0.09096725311674449
23.603968,7.70302323056929,0.09057865765648677
23.606356,7.721232920457883,0.09017579238310738
23.60874,7.745169373332006,0.08974038323540977
23.611136,7.770688618071965,0.08930990089076193
23.613524,7.793926222811787,0.0889116817967987
23.615908,7.8153014964320535,0.08852582092456887
23.618304,7.840680971545154,0.0881116735316802
23.620692,7.868993712964449,0.08768080227481383
23.623076,7.8988892462495786,0.08725540381643396
23.625476,7.9226387076685985,0.08688368074780041
23.627864,7.951603075393951,0.08646957770871863
23.630244,7.9864339757316944,0.08601960888593511
23.63264,8.0201939408828,0.08558276160136023
23.635032,8.055024841220543,0.0851415546519987
23.637412,8.095070647864619,0.0846606324600428
23.639812,8.140051821561304,0.08415372461704675
23.642196,8.182239498578658,0.08366221672742896
23.64458,8.22507880190207,0.08318383894707224
23.64698,8.26791810522548,0.08270841439940782
23.649368000000003,8.313970214108805,0.08220805952291729
23.651752,8.361233027805628,0.08169516441954759
23.654148,8.40449164000962,0.08121017029605637
23.65654,8.443885820347639,0.08075242958833403
23.65892,8.483559539939376,0.08028856718836058
23.661316,8.522302093971337,0.07983031452445825
23.663708,8.564769310242408,0.07936247303037353
23.666088,8.606165591326842,0.0789091998155653
23.668488,8.645559771664862,0.07847225249555535
23.670876,8.681229289763767,0.0780500122820337
23.673256,8.720111613422587,0.07760280525384755
23.675656,8.75699183633499,0.07717382099947083
23.678044,8.792661354433891,0.07676358485133852
23.680424,8.82725993734616,0.0763624569260082
23.682824,8.858645714698508,0.07598893965935119
23.685212,8.88896055686422,0.07562913930891778
23.687592,8.915550736790818,0.07528557474658032
23.69,8.946936514143168,0.0749255993319421
23.692384,8.974877168510126,0.07456914336870606
23.694768,9.003237131757665,0.07420019539660667
23.697164,9.02745312388551,0.07385834847204356
23.699552,9.051157259334158,0.07350645702581626
23.701936,9.081287005902634,0.07311195394737982
23.704332,9.103687888739165,0.0727460186326117
23.70672,9.124366210082998,0.07238272860496055
23.7091,9.142390804374356,0.07202162648850141
23.7115,9.156178879747404,0.07166077622144099
23.713888,9.16745299769484,0.07129884435661268
23.716268,9.180496898963213,0.07090795192655326
23.718668,9.195962209858585,0.07049330804504522
23.721056,9.207842628141703,0.07008327476380363
23.723436,9.212133952319734,0.06969507120750405
23.725832,9.215913419818566,0.06929658374526894
23.728224,9.223185232131035,0.06886892827596491
23.730604,9.227431230338691,0.06842461712608629
23.733004,9.225159069627901,0.06799500859015213
23.735392,9.218231081118219,0.06757467329639752
23.737772,9.203062372197394,0.06716721479938906
23.740172,9.18603133215701,0.06676197982746541
23.74256,9.167277730623926,0.06635544980052374
23.74494,9.151736934650762,0.06592839098428828
23.74734,9.133774729050598,0.06552313332095339
23.749724,9.110737386770962,0.06514166947833147
23.752108,9.100643814529608,0.06470857646250451
23.754504,9.087477206355198,0.06428888733860141
23.756888,9.07938573486026,0.06384629880083079
23.759272,9.066730983365048,0.06343631404159679
23.761672,9.050863426309922,0.06304347625396205
23.76406,9.029501423694738,0.06268643684715731
23.76644,9.008791047385614,0.06233712008191986
23.76884,8.9947385996218,0.061972598399338455
23.771228,8.99041711633635,0.06157882212790639
23.773608,8.983022597117845,0.06119858239703323
23.776008,8.974417373085839,0.06083037065067499
23.778396,8.969257272039226,0.06046508866281311
23.780776,8.968752998791507,0.06009272155896291
23.783176,8.968900351849843,0.05972618543508629
23.785564,8.974215389386268,0.05936542381230244
23.787944,8.984186254721587,0.05899906476013192
23.790344,8.993598041549465,0.05865164060651333
23.792732,8.99900562688451,0.058318140932350604
23.795116,9.00669485221969,0.05796822317337777
23.797512,9.013313142368231,0.05762361282312524
23.799904,9.011923029531104,0.05730791668960152
23.802284,9.011324312626899,0.056994530972385646
23.804684,9.005650459043219,0.05669990125120345
23.807072,9.008404317325788,0.05636484252550735
23.809456,9.013160276354775,0.056021531982978746
23.811856,9.018987170570398,0.055671200466060104
23.814244,9.022811964039605,0.05532785016225188
23.816628,9.01555531859009,0.05502099897261206
23.819024,8.999219334968268,0.05474432690491324
23.821412,8.978599610599893,0.05448726043615497
23.823796,8.952904749552046,0.05424678815705708
23.826192,8.92506801813092,0.05401613636359807
23.828584,8.894437790030459,0.0537862834515062
23.830964,8.869022468236333,0.05353315618071829
23.833364,8.839230857897036,0.053272066978544474
23.835748,8.802641549385566,0.05302283242733317
23.838132,8.761536182702068,0.05276891724591132
