Time,Force,Position
23.479928,0.07031015158941493,0.0
23.482308000000003,0.07096177789547284,0.0
23.484704,0.0732021035744398,0.0
23.487088,0.07557629137319413,0.0
23.489468,0.08009234954522552,0.0
23.491876,0.08992176932927927,0.0
23.494264,0.09802272011356372,0.0
23.496644000000003,0.10454087903201198,0.0
23.499048,0.10798600201740484,0.0
23.501436,0.1146439305627133,0.0
23.503816,0.11915998873474466,0.0
23.506212,0.1208825502274411,0.0
23.5086,0.1207427806005809,0.0
23.510980000000004,0.12060301097372068,0.0
23.51338,0.1176697446675255,0.0
23.515768,0.11953207578708214,0.0
23.518148000000004,0.12940280989230618,0.0
23.520552,0.1374112128779736,0.0
23.52294,0.14728194698319763,0.0
23.525324,0.15622151552864338,0.0
23.52772,0.1690255159400626,0.0
23.530108,0.1856939482174553,0.0
23.532488,0.2020828412411276,0.0
23.534884,0.21209334497321186,0.0
23.537272,0.2158180072123251,0.0
23.539652000000004,0.2098117049730746,0.0
23.542056,0.20101190605448907,0.0
23.54444,0.1939346686286,0.0
23.546820000000004,0.18778859676248927,0.0
23.549228,0.18192206415009887,0.0
23.551612,0.17619530116456877,0.0
23.553996,0.1692991476867102,0.0
23.556392,0.16240299420885165,0.0
23.55878,0.1555068407309931,0.0
23.561164,0.14954185281291285,0.0
23.563568000000004,0.1397124330288591,0.0
23.565956,0.12601858137883185,0.0
23.568336,0.11418706084836126,0.0
23.570732,0.10035343957147382,0.0
23.573120000000003,0.08745098385436471,0.0
23.5755,0.07254642739083873,0.0
23.5779,0.054708604621117575,0.0
23.580284,0.03607938591847833,0.0
23.582664,0.022105995014730675,0.0
23.58506,0.01227657523067694,0.0
23.587448,0.008453457685873758,0.0
23.589828,0.006492671260627217,0.0
23.592224,0.004671654462240885,0.0
23.594612,0.0029904072907147635,0.0
23.596992,0.0010296208654682216,0.0
23.599388,0.0,0.0
23.601772000000004,0.0,0.0
23.604152,0.0,0.0
23.606552,0.0,0.0
23.60894,0.0,0.0
23.61132,0.0,0.0
23.613716000000004,0.0,0.0
23.616104,0.0,0.0
23.618484,0.0,0.0
23.620888,0.0,0.0
23.623276,0.0,0.0
23.625656,0.0,0.0
23.628052000000004,0.0,0.0
23.63044,0.0,0.0
23.632824,0.0,0.0
23.635220000000004,0.0,0.0
23.637608,0.0,0.0
23.639984,0.0,0.0
23.642392,0.0,0.0
23.644776,0.0,0.0
23.64716,0.0,0.0
23.649556,0.0,0.0
23.651940000000003,5.123347744674959e-05,0.0
23.654324000000003,0.00210456770131035,0.0
23.65672,0.0033665059922558414,0.0
23.659108000000003,0.005839149096700072,0.0
23.661504,0.013386928880616536,0.0
23.6639,0.020934708664532998,0.0
23.666288,0.030344819568006103,0.0
23.668668000000004,0.039754930471479204,0.0
23.671068,0.049165041374952305,0.0
23.673452,0.060717022651702465,0.0
23.675836000000004,0.07333993911509117,0.0
23.678232,0.08661448188453777,0.0
23.68062,0.09560528390743024,0.0
23.683,0.1036649203705444,0.0
23.6854,0.11386642720693561,0.0
23.687784,0.12513886922996534,0.0
23.690164000000003,0.1374822464396336,0.0
23.692572,0.14768375327602484,0.0
23.694956,0.15574338973913898,0.0
23.69734,0.16194069508269648,0.0
23.699736,0.1671556013890289,0.0
23.702124,0.16943724138916622,0.0
23.704504,0.17358121250886013,0.0
23.7069,0.17451237806863845,0.0
23.709288,0.16808676694880725,0.0
23.711672,0.1625923213887544,0.0
23.714068,0.1544441487762268,0.0
23.716456,0.14936901209675457,0.0
23.718836000000003,0.14364224911122445,0.0
23.721232,0.13749617724511368,0.0
23.723620000000004,0.13041893981922462,0.0
23.726004000000003,0.12376101127391614,0.0
23.7284,0.12445985940821722,0.0
23.730788,0.1270210386620749,0.0
23.733168,0.12464685086332056,0.0
23.735568,0.1212017278779277,0.0
23.737956,0.11361263377284092,0.0
23.740340000000003,0.10546446116031331,0.0
23.742736,0.09969047634654003,0.0
23.745124,0.09717462306305624,0.0
23.747504,0.096566426869503,0.0
23.749904,0.10061216261697213,0.0
23.752288,0.10470132847694592,0.0
23.754668,0.12289395564471625,0.0
23.757064,0.15551490934437745,0.0
23.759448,0.2041923074121396,0.012197213336427069
23.761828,0.27656056992346345,0.023456485903719848
23.764224,0.3717810791171877,0.03407113867637433
23.766612,0.4966043113372379,0.04420250103387434
23.768992,0.6505656317326594,0.05384951953322854
23.771388,0.8351552843706718,0.06310821580485233
23.773776,1.047254907347845,0.07204977542492524
23.776156,1.2801140243202538,0.08082027204459503
23.778572,1.533640087489282,0.08947208066540167
23.780956000000003,1.8099749672282053,0.09804303057513507
23.783336,2.1033919005514945,0.10660997065885237
23.785732000000003,2.4230627734300723,0.11507632995687775
23.78812,2.7717810825432734,0.12342485303196271
23.7905,3.148847979756797,0.1316591041426352
23.792912,3.5506785724583914,0.13984951928787911
23.7953,3.9818361406483285,0.1479326314178772
23.79768,4.434733486079394,0.15592790439745888
23.800084,4.912772301624475,0.16375589544415217
23.802472,5.3947246667216415,0.17145989958029254
23.804852000000004,5.874680618645999,0.17903518990898512
23.807252,6.339233648366183,0.17432594774047888
23.80964,6.7730676939030285,0.17053641373258294
23.812020000000004,7.175019272271281,0.16735393248990535
23.814416,7.543785130858822,0.16460307656622075
23.8168,7.872984984516197,0.16237932500625166
23.819196,8.163687872572174,0.1606331709745067
23.821596,8.423620762900834,0.15926597552526034
23.82398,8.664841585951043,0.1580573033768127
23.82636,8.888793363961788,0.15695920733036509
23.828756,9.097478197679479,0.15591717986188783
23.831144,9.292945409678778,0.15483512903651211
23.833524,9.464487543951167,0.15382832356720272
23.83592,9.60433041079433,0.1529320877599473
23.838308,9.701859101998362,0.15223138735400327
23.840704,9.767875517228271,0.1515678022349386
23.8431,9.79581427573736,0.15104901721122957
23.845488000000003,9.79219164058621,0.15067352071926468
23.847868,9.760962695581545,0.1504941979083233
23.850264000000003,9.710970669754452,0.15052925870122263
23.852652,9.648080199859454,0.15078453212796808
23.855032,9.583557820412505,0.15115943380943309
23.857428,9.530067762198167,0.15150038660262077
23.859816,9.47699511700654,0.15191386725174708
23.862196,9.419451739613256,0.1524357311824998
23.864600000000003,9.361396505540776,0.15296621570247154
23.866988,9.30571735512492,0.15340526161638754
23.869368,9.24347471982024,0.1538795836330209
23.871764,9.171455794066823,0.15443033933004832
23.874152,9.093477787902401,0.1550368372039872
23.876532,9.008702083565808,0.15573713168605438
23.878928,8.920666351841056,0.15651784647570843
23.881316,8.834398507579374,0.15733916785393975
23.8837,8.754414608952793,0.15815441561803695
23.886096,8.687652123760342,0.15888077458244243
23.888484,8.61977148155301,0.1596723818960144
23.890880000000003,8.546536163412487,0.160594127248621
23.893276,8.471997592659848,0.16154070423231287
23.895664000000004,8.3927106463097,0.16254190781047795
23.898044,8.312307438802542,0.16352293677419172
23.900440000000003,8.23395355387004,0.16445176711857434
23.902828,8.155459899310678,0.16539540648884507
23.905208,8.076639483669354,0.16637461595910846
23.907612,8.005453488103491,0.16731046355507936
23.909996,7.941762142986226,0.16822101596510713
23.91238,7.885705217944424,0.16909638588916712
23.914784,7.829973158126715,0.17003931596168925
23.917172,7.781737644615476,0.17084624511414276
23.919552000000003,7.729824690693368,0.17169906718190014
23.921952,7.67437406598725,0.17258265963152192
23.924336000000004,7.620041598296013,0.17341473957386944
23.926720000000003,7.562823086126824,0.17427113613797018
23.929116,7.499877810972105,0.17524471916268833
23.931504000000004,7.434883213242725,0.17630113043204387
23.933884,7.372355351110719,0.17736149605360688
23.936280000000004,7.320162857934889,0.17828140510553084
23.938668,7.285522740767988,0.17891993942503334
23.941048,7.260845905504929,0.179401618366541
23.943444,7.239242106174924,0.17982764001195822
23.945836,7.2192683205389985,0.1802025391303943
23.948216,7.198270821544678,0.1805651456426701
23.95062,7.178763566617574,0.18087896863598213
23.953004,7.1600477076233915,0.1811801871535047
23.955384,7.141192079002348,0.18148751632304944
23.95778,7.131368566725368,0.18164284875263223
23.960168000000003,7.127504134859395,0.18171542567388538
23.962548,7.134394380830179,0.18161820253496674
23.964944000000003,7.14747602463745,0.18146632126577603
23.967332,7.173034907774175,0.1811209413795726
23.969728000000003,7.205251719456211,0.1806520629503839
23.972132,7.24068133669816,0.1801137206626813
23.974516,7.284119356925777,0.17942067563133696
23.9769,7.339709751258756,0.17848351203988283
23.979296,7.405729958204399,0.1773429671817514
23.98168,7.476173675523458,0.1761227094634674
23.984064000000004,7.5471292495217135,0.17493498396473142
23.98646,7.619527845758946,0.17377402466349234
23.988848,7.690575967555819,0.1726644328493331
23.991228,7.769864809763837,0.1714417076682972
23.993624,7.857301824584383,0.1700849187566773
23.996012,7.951164450524758,0.16861259672998183
23.998392000000003,8.047635477547237,0.1670598140921542
24.000796,8.140988142666284,0.16551164548436742
24.00318,8.238252461479547,0.163890556139446
24.005564,8.330628635068443,0.1623531565742053
24.00796,8.423284347911059,0.16083173200163664
24.010344000000003,8.517290535194036,0.15932235739424225
24.012724,8.607711829864755,0.15787954361537054
24.015120000000003,8.697481498229418,0.15646319376640944
24.017508,8.786320001034305,0.15506910879269825
24.019892,8.873715481600216,0.1536928446500946
24.022288000000003,8.955291651381978,0.15238576415935068
24.024676,9.031048510379593,0.1511528644894537
24.027072,9.097261396353948,0.150034750944636
24.029468,9.161659173036988,0.148930454647124
24.031856,9.225173005988495,0.14782148070287082
24.034236,9.288826608566863,0.14673154004937614
24.036632,9.354901620772226,0.1456092568446012
24.03902,9.418602445178836,0.14451835842066107
24.041400000000003,9.477879759212032,0.14351305941270615
24.043796,9.534084037312171,0.1425618204339413
24.046184000000004,9.58307130835956,0.1417089305952866
24.048564,9.633409053847307,0.14083555425262922
24.050968,9.678207027804632,0.1399978436635609
24.053356,9.719839418030281,0.13917855278862934
24.05574,9.758585763777981,0.138370559797431
24.058136,9.79081395060723,0.1376340082926755
24.060524,9.82439261187684,0.1368779828321286
24.062908,9.855038006840255,0.13615850265850782
24.065304,9.887965041803804,0.13541090765283678
24.067692,9.918750206394078,0.13469171292097556
24.070072000000003,9.951397702103908,0.13395923924179143
24.072468,9.98339357150768,0.13322854220624492
24.074856,10.012176635351537,0.13253578159853466
24.077232,10.035232936209862,0.13190151879619444
24.079636,10.050560373336241,0.13134259589502298
24.082024,10.053503118931784,0.13089884116659906
24.084404,10.052162123780773,0.1305096807876769
24.086800000000004,10.046118079002625,0.13018964727746496
24.089184000000003,10.034859127918144,0.12992980567754
24.09158,10.019595975340831,0.12971171620105582
24.093976,10.00926818981613,0.12944281881117095
24.096364,9.991723397238678,0.12925505597060374
24.098748,9.97133788615365,0.1291197088168839
24.101144,9.948019108762425,0.12901287554670102
24.103532,9.921627295438146,0.1289393896481263
24.105912000000004,9.890811971740453,0.12892474121357517
24.108308,9.856644072855984,0.1289536143900772
24.110696,9.820334303598237,0.1290084258775436
24.113076,9.779321484713355,0.12913067616701338
24.115472,9.738960292134532,0.12925572300494897
24.11786,9.693384193249376,0.12944092246109243
24.120240000000003,9.644595288804306,0.129664332700693
24.122636,9.601021290665566,0.12982646004754975
24.125024000000003,9.556376357340188,0.13000197236701613
24.127424,9.51731841737348,0.13013085932678214
24.12982,9.487060276325355,0.1301734835315454
24.132208,9.459595631956567,0.13019160773223543
24.134588,9.434412627587918,0.1301777353246594
24.136988,9.416167091018298,0.13009247310936317
24.139372,9.403788087061066,0.12994895589675462
24.141756,9.389267212730559,0.12983132932548375
24.144152,9.383685906945496,0.1296220219871203
24.14654,9.383319507466766,0.1293524650808859
24.148924,9.385467065413653,0.12906953126137227
24.151328,9.386124379293317,0.12881496232610334
24.153716000000003,9.391205203546397,0.12850081194050597
24.156096,9.39493555335912,0.12821004510590248
24.158500000000004,9.400388464664537,0.12790860765841067
24.160884000000003,9.41012511671651,0.12755407800694238
24.163268,9.423074574328396,0.12716091319655948
24.165664,9.440168003059977,0.12671895883457188
24.168048,9.460986094030671,0.1262459963877587
24.170432,9.479662314628088,0.12580137960652485
24.172828000000003,9.498850391904703,0.12536343731683258
24.175216,9.51710730362154,0.12493486256643814
24.177596,9.535224445711515,0.12451520347600488
24.179992,9.552550191868574,0.12410013678246583
24.18238,9.57080710358541,0.12367909188833358
24.18476,9.5825458563838,0.12331063605736368
24.187156,9.59242227806263,0.12295982170031614
24.189544,9.60378894380868,0.12258094425422077
24.191928,9.612222343248536,0.12223153692186842
24.194324,9.617582706755336,0.12191535834300032
24.196708,9.625224710262275,0.12156975088804028
24.199092,9.639012785635323,0.12116123687652125
24.201488,9.65252132175465,0.12076408194804214
24.203876,9.672735008247534,0.12028503244106308
24.206256000000003,9.69443893880763,0.11977979468809911
24.208652,9.71549124306167,0.11927471517657513
24.21104,9.732679115449738,0.11880342300239853
24.213436,9.747864887091387,0.11835102099093038
24.215832,9.759186226867063,0.11793048567855398
24.21822,9.769436631456102,0.11752123204011827
24.2206,9.782899841605055,0.1170765080682555
24.223,9.796642591007728,0.11662249268965784
24.225384,9.806660678171287,0.11619561457452356
24.227768,9.813885268655515,0.1157885998473777
24.230172000000003,9.819387297647047,0.11539011193380118
24.23256,9.831826794437605,0.11493122164167716
24.23494,9.841333024921965,0.11449743930639934
24.237344,9.850559716152606,0.11407526315989552
24.239732000000004,9.85871547219661,0.1136650469093586
24.242112,9.866731458613756,0.11325977921683714
24.244508000000003,9.875538840963817,0.112855591614601
24.246892000000003,9.88248389219432,0.11246621496133123
24.249272,9.89292128823846,0.11203560374573276
24.251668,9.898423317229993,0.11164742988496992
24.254056,9.905927446967937,0.11124510274309916
24.256436,9.909427375213049,0.1108759824539357
24.258832,9.917862670510772,0.11046936456788062
24.26122,9.929091462487833,0.11004598958796603
24.263612,9.944044916704007,0.10959959412884668
24.266008,9.963933737972791,0.10911669102646147
24.268396000000003,9.983822559241577,0.10863621552911414
24.270776,10.007296273122614,0.10814226090100189
24.273172,10.031561382936571,0.10764683123544568
24.27556,10.05875975905672,0.10713077974547676
24.27794,10.086889300736651,0.10661026869547637
24.280336,10.111014640923749,0.10612430173665537
24.282724,10.135000211483986,0.10564216612014812
24.285104,10.15856647316364,0.10517583966224964
24.287504,10.182784361149352,0.10471438596152767
24.289892,10.208585041000903,0.10425271879065857
24.292288,10.231172915292536,0.10382282137358317
24.294684000000004,10.254691955143947,0.10339058446534892
24.297068000000003,10.274858419808583,0.10299600249351801
24.299452,10.295676510779277,0.10260659275317348
24.301848,10.309557133950943,0.10226763784586176
24.304236000000003,10.327022649734861,0.10191337166977142
24.306616,10.339133489585587,0.10160902145987821
24.309016,10.346960588689758,0.10134326227116187
24.311404000000003,10.353856522234151,0.10108314837983921
24.313784,10.35726011096491,0.10086236832915114
24.316188000000004,10.362246491561503,0.10064246527239432
24.318576,10.363368440292126,0.10044744009887735
24.320956,10.367703194582662,0.10022478222839158
24.323356,10.372037948873198,0.10000295483286614
24.325740000000003,10.379166199843068,0.09976841225806053
24.328124000000003,10.389879343425193,0.09952121640323146
24.330528,10.403246214059788,0.09926516156613972
24.332912,10.415542149507749,0.09901819971864842
24.335292000000003,10.430911120888764,0.09875004611941608
24.337696,10.448701501896776,0.0984567440523979
24.340084,10.469704688464706,0.09813762461627035
24.342468000000004,10.488845543913078,0.09782895377322294
24.344864,10.50691546417481,0.09752936476419206
24.347252,10.523634909996185,0.09724761451349011
24.349636000000004,10.54459087473587,0.09695720097860087
24.352032,10.56340496910228,0.09668492307512869
24.35442,10.584360933841966,0.09639485084985756
24.3568,10.613325301567318,0.09605380368670845
24.359204,10.643081065225589,0.09571426372768066
24.361592,10.675398008137718,0.09534558794667813
24.363972000000004,10.702267727318036,0.09499846632850317
24.366368,10.726855806498218,0.09467279972654016
24.368756,10.751443885678398,0.09435010618699408
24.371136,10.77589219523172,0.09403360255489884
24.373536,10.79461374179951,0.09374668716764865
24.37592,10.810681561314828,0.09346904612920832
24.378304,10.82889125120342,0.09317661198268071
24.3807,10.851384681838569,0.09285249662232262
24.383088,10.870944846167522,0.09254622489056463
24.385468000000003,10.887431974563418,0.09226185634843381
24.387868,10.902987937399537,0.09198291969904811
24.390256,10.918404130608796,0.09170894907398966
24.392636000000003,10.93568265493761,0.09142799891290425
24.395036,10.954311653706784,0.09113052694201881
24.397420000000004,10.974570666170036,0.09080956577918568
24.399804000000003,10.997902714566344,0.09047004538178716
24.4022,11.024168029268848,0.09011758018667322
24.404584,11.044706580985824,0.08979298900686912
24.406964,11.063382801583241,0.08947587654780205
24.40936,11.079777382180524,0.08917969942508777
24.411748000000003,11.101898725763336,0.08885942238246922
24.414128,11.12751241415978,0.08850820466840943
24.416528,11.151775628115868,0.08817497427865544
24.418912,11.17282603651204,0.08786441972995218
24.421308000000003,11.198392503080242,0.08754151132816532
24.423708,11.223539660767862,0.08723177975140797
24.426092,11.244542847335794,0.0869490590673441
24.428476000000003,11.261402062784025,0.08669319412511879
24.430872,11.277190343045621,0.08644492310507533
24.43326,11.292978623307217,0.0861971863938788
24.43564,11.30569386763576,0.08596760991073148
24.438036000000004,11.318129572710578,0.0857465767801707
24.440424,11.330705047412257,0.08552223607515097
24.442804,11.345282622860354,0.08528850337213599
24.445208,11.357718327935178,0.08507021712192625
24.447596,11.367360536330661,0.08486174708145722
24.449980000000004,11.372998543233312,0.08467423653395065
24.452376,11.383571917188576,0.08446460337462958
24.454764,11.398429031890394,0.08422801477024669
24.457148000000004,11.41556778659235,0.08397461224278799
24.459544,11.429773274988113,0.08373518981864356
24.461932,11.445561555249709,0.08349959258203828
24.464316000000004,11.45920796513803,0.08327772334177982
24.466712,11.475136015026484,0.08303811312268282
24.4691,11.492274769728438,0.082789493809651
24.47148,11.507830732564557,0.08253838021916908
24.47388,11.525668335400812,0.08227034966323697
24.476264,11.545508038983481,0.08199337746824903
24.478648,11.567349843312572,0.08170753938987761
24.481044,11.588120712455023,0.08142860298977828
24.483432,11.61168507827681,0.08114172621438485
24.485812000000003,11.634597817792539,0.08084983907210057
24.488208,11.656579391748489,0.08056157650770462
24.490596000000004,11.674556764211603,0.0802923591765988
24.492980000000003,11.692394367047859,0.08002752128827545
24.495376,11.709952430630395,0.07977038090197366
24.497764000000004,11.727650263839788,0.07950928059898543
24.500144,11.739341794809935,0.0792764574066445
24.502544,11.745678649846887,0.0790764918533501
24.504932000000004,11.74572966339087,0.07891106287521997
24.507312,11.748853712867907,0.07873096455403665
24.509712,11.746111229732556,0.0785735975310648
24.512100000000004,11.741785954731366,0.07841296410131232
24.514496,11.737600449357037,0.07824848463087916
24.516892,11.727548411370318,0.07810642304297752
24.51928,11.720429639689792,0.07795302597368599
24.52166,11.71130876726285,0.07780824797683998
24.524056,11.703398599649407,0.07765360600158457
24.526448,11.69269493535663,0.07750583351138694
24.528828,11.683062206250488,0.07735170561225008
24.531224,11.67156714602479,0.07720215299465986
24.533616,11.661003251358874,0.07705008723019377
