Time,Force,Position
27.542323999999997,1.3892454719005312,0.034567322715290415
27.54472,1.2721962547643137,0.03224598632335211
27.547107999999994,1.1588716998672097,0.02992824848312141
27.549491999999997,1.0520653038885541,0.02763318662539818
27.551888,0.9487040308952912,0.025362406478440402
27.554275999999994,0.847205089021585,0.023097400423597477
27.556656,0.7537145501335462,0.02081916385182608
27.559051999999998,0.6699549757238713,0.018529351118470407
27.56144,0.5960661354194204,0.016224406246423004
27.563824,0.5277642884736394,0.013951772464490097
27.566219999999998,0.46211616858033333,0.011687292390925851
27.568608,0.3968401357393645,0.009459895398544266
27.570988,0.3345382030031955,0.00721537870490369
27.573387999999994,0.2781028028794168,0.004914389452345067
27.575771999999997,0.2335447297790484,0.0024584015924330807
27.578171999999995,0.1897308307833549,0.0
27.580568,0.151316933691228,0.0
27.582956,0.12216747036864116,0.0
27.585336,0.10372546305457037,0.0
27.587731999999995,0.09734138618937462,0.0
27.59012,0.10487757089261052,0.0
27.592504,0.1201879452981673,0.0
27.5949,0.14047901272670998,0.0
27.597288,0.16360890280496154,0.0
27.599672,0.1927904210928376,0.0
27.602068,0.228675193896396,0.0
27.60446,0.26725901972280314,0.009569229471670767
27.60684,0.3054688626390034,0.019666517797587952
27.60924,0.3454465930182742,0.02957829749163443
27.611628,0.38439871418128024,0.040049114770176544
27.614011999999995,0.42940246355391076,0.05031965008647152
27.616408,0.48287925076316324,0.060180859274046726
27.618796,0.5445087027567127,0.06965345498843323
27.621176,0.6087446599744937,0.07909353305967268
27.623572,0.6739998383789008,0.08836875569181346
27.62596,0.7438182967835826,0.09736670768303611
27.628344,0.8195505096288976,0.10591941437665338
27.63074,0.8923966779962608,0.11451100842917045
27.633128,0.9661286859530281,0.12267791371909231
27.635512,1.035811166446588,0.130682221526468
27.637908,1.102095745782998,0.1385377463600134
27.640296,1.1641910280293406,0.14651902775132378
27.64268,1.2251700491186706,0.15434841609921418
27.645076,1.2841016434912098,0.16212031989751635
27.647464,1.3361902137212063,0.1700684475053268
27.649848,1.382646464622159,0.17810663189957648
27.652244,1.4205371298878728,0.17680312405112783
27.654632,1.4570792165710968,0.1749321425348362
27.657016,1.4895717757911133,0.17324666965041527
27.65942,1.522158778667616,0.1709662063205857
27.661804,1.5524660374018509,0.1686090148918292
27.664188,1.5757905023666825,0.16675487914693424
27.666591999999994,1.5933428783756105,0.16521246455827715
27.66898,1.6059145613615524,0.16379373925650126
27.67136,1.616019508750123,0.1623935611734082
27.673756,1.623098642033881,0.16116230275708873
27.676143999999997,1.6224961334139354,0.1604268547497829
27.678527999999996,1.6183559540099803,0.15973770451025698
27.680927999999994,1.6058352845680202,0.15968857900989883
27.683311999999997,1.5850738947149154,0.1603048267257691
27.685695999999997,1.5595641292643017,0.16111618965242708
27.688092,1.5362434560152078,0.1614706457852731
27.690484,1.508406724594083,0.16216005522648325
27.692868,1.4781958053742037,0.1629536999757196
27.695263999999995,1.4530600228337966,0.16323467630632763
27.697652,1.4311370458533055,0.1631515460936227
27.700031999999997,1.4120075655521491,0.16287962659975125
27.702428,1.3915276108106338,0.16282409050063917
27.704815999999997,1.3674627634568655,0.1631058058266106
27.707199999999997,1.345400016849514,0.16312449511463858
27.709596,1.3223588828541408,0.16337632219490392
27.711983999999998,1.302251015164963,0.16334819975732645
27.714364,1.2803733641548458,0.16367690256599682
27.716759999999997,1.2625924624361788,0.1637780249227651
27.719151999999998,1.245136425941607,0.1641798034154927
27.721532,1.2265150106039098,0.16517861239070564
27.723927999999997,1.2138980016475938,0.16616761628779567
27.726316,1.2104509828043317,0.1669748625725282
27.7287,1.215382558141205,0.1676431324296963
27.731095999999997,1.2349313473229422,0.16765515244968457
27.733484,1.2638824440432102,0.16759142713490655
27.735868,1.297952107555455,0.16795464939041937
27.738263999999997,1.3431938619271704,0.1679647427273075
27.740652,1.395603505665523,0.16796198907962606
27.743032,1.4486628798520642,0.16847924115134233
27.745428,1.505956877099047,0.16929150073065624
27.747815999999997,1.5708380725932471,0.1700133177404449
27.7502,1.6477299767080793,0.17029672078744362
27.752596,1.7374239853764615,0.17005523797095318
27.754983999999997,1.8300493644931697,0.17014587671630954
27.757363999999995,1.925885653311924,0.17036586551396865
27.759764,2.027307039631479,0.17074784700940487
27.762151999999997,2.140599364944806,0.17071350745476604
27.764532,2.2616186581322104,0.17072546689956514
27.766927999999997,2.3881777228500414,0.1705389180006494
27.769316,2.525957996113456,0.16961282023167343
27.7717,2.6632736345259165,0.1685867666903397
27.774095999999997,2.797378363236329,0.16756952661329852
27.776484,2.9306935918716945,0.1663405301710934
27.778868,3.054978600020865,0.16526149500103035
27.781263999999997,3.1703731573107032,0.16423172883543993
27.783652,3.283163105234178,0.1629705206914535
27.786036,3.3865035237908794,0.16188873912056928
27.788439999999994,3.4879835070858936,0.16067121221185138
27.790828,3.591467486985193,0.15913852257035938
27.793212,3.6900179956897503,0.15757674592468104
27.795612,3.783774802826425,0.15601347507344426
27.797996,3.8664520669022457,0.15473191471923217
27.80038,3.938980953476992,0.15365842741777744
27.802775999999994,4.006716138483855,0.15252687532993606
27.805164,4.068726456363057,0.15133841275072438
27.807548,4.122078640808403,0.15021589476403108
27.809943999999994,4.165981295886975,0.1492043996166962
27.812335999999995,4.199131168986657,0.14827410060364798
27.814716,4.224274534958541,0.1474045927155741
27.817116,4.232005294548357,0.14697937768184763
27.819503999999995,4.233217895219725,0.1467237882864787
27.821887999999998,4.230286524771399,0.1466073657148091
27.824284,4.2222800176436,0.1466505298590827
27.826671999999995,4.215856302381638,0.14667301693492452
27.829055999999994,4.211155148612373,0.14666183714807363
27.831452,4.202030484469693,0.14681041047911345
27.833844,4.191555345886655,0.14702666044991072
27.836228,4.173351343571669,0.1474604966019473
27.838624,4.150072204577211,0.14804039777844424
27.841012,4.126001669649835,0.1486284282084037
27.843396,4.1005806602821,0.14927259590802563
27.845792,4.074740342033784,0.149966181916114
27.84818,4.050482815651304,0.15064204352592156
27.850564,4.026597376321162,0.1513455232340343
27.852963999999997,4.006948455909332,0.15197119476506837
27.855352,3.9910241977366137,0.1525042053783415
27.857732,3.972678529936898,0.1531420946817925
27.860128,3.957358676241995,0.15375175796555937
27.862516,3.9454839455324846,0.15429429491171168
27.8649,3.946552984861254,0.15445697841283565
27.867296,3.954279952735332,0.15444348347953815
27.869684,3.9657315828485227,0.15433717244614575
27.872068,3.9784864655738295,0.1542363232519616
27.874464,3.9893790171795795,0.15418216119326314
27.876852,4.002133899904886,0.15408409270911497
27.879236,4.0116759770702775,0.15409170062098645
27.881632,4.024570629422445,0.15397290302941044
27.88402,4.0433318143870025,0.15368017605970222
27.886404,4.061161833791782,0.15340847390487697
27.888811999999994,4.082996054689394,0.1530224111828641
27.8912,4.1055291237213085,0.15257383041985678
27.893579999999996,4.1303438327533595,0.15203436790958588
27.895979999999994,4.153435980292714,0.15152603384277444
27.898368,4.177738832645567,0.15097265300021315
27.900752,4.199527727572806,0.15046851304273479
27.903147999999995,4.221316622500045,0.14997368261112795
27.905536,4.245107618173701,0.14941173168060207
27.90792,4.2662448867948815,0.14890771494501034
27.910315999999995,4.286450989856284,0.14843339934942357
27.912704,4.298369150678298,0.14822495307159664
27.915083999999997,4.30805289332842,0.14803608520498096
27.917483999999995,4.315222678552926,0.14788862563614594
27.919872,4.322160146351956,0.14769903958768768
27.922251999999997,4.3328222763900985,0.1474250965845539
27.924651999999995,4.344275802361158,0.14714855002111363
27.92704,4.364948436131385,0.14660968693220394
27.929424,4.3861329265808084,0.14609435997971373
27.931819999999995,4.404384150724038,0.14565592937301058
27.934208,4.423846079680765,0.1451703292101879
27.936592,4.4383726415848805,0.14481789417674543
27.938987999999995,4.452479894608416,0.14450622417972014
27.941376,4.46751831319173,0.14417859531718583
27.943755999999997,4.486700702894735,0.14373974066321293
27.94616,4.50215843035863,0.14337928864646954
27.948547999999995,4.519758028195802,0.14296008837327162
27.950928,4.534564129353637,0.14260036519642247
27.953332,4.552583036071389,0.14215271538851743
27.95572,4.5726040435355575,0.14165581343888412
27.958099999999995,4.5907627198801695,0.1411969713542229
27.960496,4.613344906598195,0.1406021612276964
27.962883999999995,4.635787323689362,0.14002563318943065
27.965264,4.656367409660971,0.13948291886841194
27.967664,4.678018430819218,0.13891365209493858
27.970051999999995,4.699157595298269,0.13834022385352338
27.972435999999995,4.716711867165066,0.13783265219428179
27.974832,4.728120067165753,0.13748511137052752
27.97722,4.736734770487104,0.13719114993672427
27.979603999999995,4.745069934554735,0.13691758403038407
27.982,4.755127660115062,0.13662183413557671
27.984388,4.765837011981447,0.13632933452185494
27.986768,4.775335659034334,0.13607774566770062
27.989168,4.782040809407885,0.13588039225406034
27.991556,4.78660408940816,0.13574334372072286
27.993936,4.794892031647547,0.13553648118190706
27.996336,4.802900434633214,0.13535512046976297
27.998724,4.812910938365299,0.1351286815803828
28.001107999999995,4.820779571724106,0.13496151767266612
28.003504,4.828368665829193,0.1348173770994115
28.005896,4.834747055120782,0.13471010622065266
28.008275999999995,4.838843804412233,0.13467020276614222
28.010676,4.841450309636464,0.1346907781188467
28.013068,4.849504038592505,0.13462252788721332
28.015448,4.858861020160662,0.1345662849616348
28.017844,4.8647256569151835,0.13461334905022998
28.020231999999996,4.868960279975624,0.13473054844128501
28.022611999999995,4.874126068595845,0.134831045637335
28.025015999999997,4.882364893149121,0.13485999954450137
28.027404,4.894887458448951,0.13478019465553276
28.029791999999997,4.906618627815861,0.13470792665277664
28.032188,4.921283063488968,0.13457718708003757
28.034575999999998,4.937018434348714,0.1344192337672704
28.036959999999997,4.957549402634211,0.1341734092103759
28.039356,4.978871766852626,0.1339250845446818
28.041743999999994,5.001125296630818,0.13366676955798007
28.044127999999997,5.020305790475956,0.13347609146402478
28.046524,5.039486284321095,0.13328816474726712
28.048911999999994,5.0535916414867605,0.13320551969532296
28.051295999999997,5.066905602719508,0.13312830894983843
28.053692,5.0863656358183675,0.13291785740754428
28.056079999999994,5.10875893522342,0.1326534775937658
28.058463999999997,5.1325027090688335,0.1323423437020681
28.06086,5.152661590301992,0.13208622167746115
28.063247999999994,5.16830441336312,0.13189538832208805
28.065631999999997,5.185018171610887,0.13167712243746665
28.068028,5.205224274672289,0.13135902791472273
28.07042,5.226641082547189,0.13100617202226914
28.072799999999997,5.244193458556118,0.13072554068326125
28.075196,5.260674899378406,0.13047638580366602
28.077588,5.277156340200696,0.1302298371697
28.079967999999997,5.288190557291176,0.13006194783365657
28.082367999999995,5.2973624432621005,0.12992330899715984
28.084756,5.3013194229266905,0.12989966794611385
28.087143999999995,5.303414071471725,0.12990555401918683
28.08954,5.300713122591007,0.12999473431667205
28.091932,5.301224979270205,0.1300099824168788
28.09432,5.301457296695681,0.1300450387283865
28.096715999999997,5.309977556360546,0.12990433344580976
28.099107999999998,5.322362247891385,0.12969861122643495
28.101491999999997,5.331953442742889,0.1295393999104028
28.103891999999995,5.335817874608862,0.12947370475218528
28.10628,5.334886709049085,0.12948786805855403
28.108664,5.333955543489307,0.1295020313649228
28.111064,5.334886709049085,0.12948772696765526
28.113451999999995,5.336609270541782,0.1294689142073072
28.11584,5.339123227967396,0.12944597960717497
28.118236,5.343359746885707,0.12940531644084607
28.120624,5.349458596923574,0.12933622742785303
28.123012,5.352624180655245,0.12931911577392502
28.125412,5.351366254013503,0.1294067641508563
28.127799999999997,5.353972759237736,0.12942817645673219
28.130188,5.358069508529187,0.12939629228699168
28.132583999999994,5.364727437074494,0.12928690581654775
28.134972,5.370593969686886,0.12918148283103226
28.137372,5.38046470379211,0.1289991922705102
28.139768,5.387402171591138,0.1288702199942024
28.142156,5.393408473830389,0.12875556031672805
28.144555999999994,5.394339639390167,0.12874155155672032
28.146952,5.388612876404637,0.12883487959277512
28.149339999999995,5.379533538232331,0.12900931351301728
28.151743999999997,5.376600271926136,0.12906084536486603
28.15414,5.382606574165386,0.12894870617006146
28.156527999999994,5.3898235812181365,0.128804148478867
28.158928,5.399322228271022,0.12860452143329568
28.161328,5.409519723458211,0.12835855584337852
28.163715999999997,5.417854887525841,0.1281408697885194
28.166112,5.422605158981219,0.127968474866107
28.168516,5.4284263656232365,0.12777389741039374
28.170903999999997,5.435970133757948,0.12756199650543656
28.173308,5.450079282639353,0.12720374913103377
28.1757,5.4661905322671736,0.12681464641564985
28.178096,5.481742703387554,0.12646369308425712
28.180496,5.4940820689480185,0.12617952655262024
28.18288,5.5084235352549,0.12586012501395757
28.18528,5.518760800068947,0.12561173575793924
28.187676,5.5289582952561345,0.12537117335987974
28.190068,5.5374332289506265,0.12514618834708452
28.192463999999998,5.5479102633915325,0.12488544743512192
28.194863999999995,5.561320564138636,0.12457320137372996
28.197252,5.578083440072516,0.12418168249657752
28.199636,5.589771179326922,0.12388755918076472
28.202032,5.598665421901995,0.1236391547146852
28.20442,5.606348959663569,0.12342316874499557
28.206799999999998,5.611890627051865,0.1232524510511128
28.2092,5.615010884813164,0.12314417600124059
28.211588,5.6173397466415445,0.1230391527247514
28.213972,5.619528838843065,0.12294300539977557
28.216368,5.622649096604364,0.12283504459917712
28.218756,5.624326332126684,0.1227246532343842
28.22114,5.625072402089229,0.12262791310339682
28.223536,5.6231647449993,0.12255892765563699
28.225924,5.622467792722866,0.12246006156810015
28.228308,5.62605458119299,0.12227752367237733
28.230708,5.630572535222889,0.12208450382674658
28.233096,5.636813050745487,0.12187541581229504
28.235479999999995,5.645195436641361,0.1216245222011278
28.237875999999996,5.659584124776485,0.12127769398127636
28.240267999999997,5.672110481792053,0.12095506529376712
28.242652,5.682494968434345,0.12067248358610347
28.245048,5.690737584703359,0.12043187864624202
28.24744,5.70084253209193,0.1201663535793614
28.24982,5.705732573174168,0.11999602375072937
28.252219999999998,5.70876028313685,0.11984885607562668
28.254608,5.712207301980111,0.11967493869460696
28.256992,5.717935960823511,0.11945033720350912
28.259387999999998,5.72939138265244,0.1191490056383176
28.261776,5.741638200414287,0.11884387036213999
28.26416,5.753885018176135,0.11854223998486502
28.266555999999994,5.767714627803818,0.11823575480107136
28.268944,5.776049791871449,0.11803959066009034
28.271328,5.781032380752304,0.11791287711428196
28.273731999999995,5.787085904819797,0.1177670864643141
28.27612,5.7917889544469325,0.11766039667698636
28.278499999999998,5.792627572208094,0.11760774629438175
28.280896,5.797098304409753,0.11746969834883708
28.283283999999995,5.800777640678491,0.11733463523736168
28.285667999999998,5.799381840267759,0.11728110645847557
28.288064,5.800639766909501,0.11720366207855579
28.290451999999995,5.806833060603855,0.1170550560143067
28.292835999999998,5.8168907861641825,0.11685572429650194
28.295232,5.8288108428440655,0.1166360121630534
28.297619999999995,5.846317892882621,0.1163514747121209
28.300003999999998,5.8684807707200655,0.11601413204262229
28.3024,5.88994480042321,0.11571981593942283
28.304787999999995,5.913131391619051,0.11541739803407003
28.307171999999994,5.928309579829225,0.11523394487446335
28.309568,5.943627537666258,0.11504182129301818
28.311955999999995,5.954149898077539,0.11491009756905192
28.314339999999994,5.962809927369266,0.11479927279368593
28.316736,5.9778955677808225,0.1145751778022334
28.319123999999995,5.998568201551049,0.11428751833312967
28.321507999999994,6.016819425694278,0.1140559963245449
28.323904,6.0360018153972845,0.11381615379969334
28.326296,6.058908867339404,0.11353490603660032
28.328675999999994,6.0783235744678885,0.11332942234357818
28.331076,6.100252239021987,0.11311274202729607
28.333464,6.122972299509004,0.11289315588778502
28.335843999999994,6.144621424809382,0.11269363025863345
28.338244,6.163477053430426,0.112526516801311
28.340632,6.1803305813050535,0.11238958222174078
28.343011999999995,6.194250842873486,0.11229024765501383
28.345412,6.205517377389442,0.11221280020622479
28.3478,6.216132285599341,0.11213067281385601
28.350179999999995,6.230099768996016,0.11198936968048165
28.352576,6.2411339860864965,0.11188540342474818
28.354963999999995,6.254449843177114,0.11173723433566554
28.357344,6.270978505827647,0.1115392121853393
28.359739999999995,6.292162996277071,0.11129377804925386
28.362128,6.318282853779106,0.11098885709257367
28.364512,6.341981301654145,0.11073757479157968
28.366907999999995,6.36330556173043,0.11049257927628174
28.369296,6.3841179651275155,0.11023233939164094
28.371675999999997,6.4022766414721275,0.10999243737901165
28.374072,6.416710655577626,0.10978866008054206
28.376459999999994,6.433286540056402,0.10955245597805341
28.378843999999997,6.447208697482703,0.10933718437269005
28.38124,6.4615501637895845,0.10909906055634985
28.383632,6.471375571924435,0.10889613752523201
28.386011999999997,6.4821321456190635,0.10868506761306565
28.388411999999995,6.489024287447718,0.10851650620213671
28.3908,6.498337838903371,0.10829938592210508
28.393184,6.507930929612745,0.10806713582847643
28.395579999999995,6.512588653269506,0.10789476031082615
28.397968,6.511379844313876,0.10779128232555181
28.400352,6.50830870423869,0.10770539098364801
28.402752,6.505237564163503,0.10761929742611342
28.40514,6.496160121849066,0.10760990436229882
28.40752,6.484568722109014,0.10761129467666951
28.409916,6.46911289050299,0.10765420234194648
28.412308,6.453145202217768,0.1076823445760751
28.414688,6.4379689098654636,0.10770866015835745
28.417088,6.42293238714002,0.10772724492762928
28.419476,6.4069646988547975,0.10775483718166796
28.421856,6.395140981689268,0.10772423304128131
28.424256,6.380803307098125,0.1077033697233639
28.426644,6.365534466947203,0.10769089910420661
28.429024,6.3511967923560615,0.1076690412940423
28.431424,6.342725650377308,0.10758082192443445
28.433812,6.333463112465637,0.10749319277165942
28.436195999999995,6.329555250487158,0.1073250118973985
28.438592,6.321503417388987,0.10721309481076458
28.44098,6.313591353917675,0.10709319438675784
28.44336,6.308892096006279,0.10692469031286339
28.44576,6.306334708468161,0.1067230490849776
28.448148,6.306058960930177,0.1064807921593592
28.450531999999995,6.307925083765472,0.10620644589690725
28.452927999999996,6.314214716974181,0.10585937034599609
28.455316,6.32157528536953,0.10549636053321416
28.4577,6.3293551626454585,0.10511111445900814
28.460095999999997,6.33527270880183,0.1047419027534048
28.462484,6.341609563838783,0.10435170061275419
28.464868,6.352881785928348,0.10390885218592515
28.467263999999997,6.371231245443802,0.10338391912216434
28.469652,6.383853941973725,0.10291378694498766
28.472036,6.395685242570731,0.10244322016669033
28.474431999999997,6.409006787234955,0.10193516322003351
28.476823999999997,6.419814374473565,0.10143606625126286
28.479204,6.4313208098464765,0.10090507507508073
28.481604,6.442035849286469,0.10037449531883208
