Time,Force,Position
25.450036,0.0666022499600786,0.0
25.452416,0.06751369403349688,0.0
25.454816,0.0675136940334969,0.0
25.457204,0.0675136940334969,0.0
25.459584,0.06751369403349691,0.0
25.46198,0.06751369403349691,0.0
25.464368,0.06751369403349691,0.0
25.466748000000003,0.06751369403349691,0.0
25.469152,0.06751369403349691,0.0
25.47154,0.06334222257191985,0.0
25.47392,0.05730841999078617,0.0
25.47632,0.049412286290095836,0.0
25.478708,0.041516152589405504,0.0
25.481088,0.03362001888871518,0.0
25.483484,0.026934590001523588,0.0
25.485872,0.02145986592783074,0.0
25.488252000000003,0.015985141854137897,0.0
25.490648,0.010510417780445046,0.0
25.493036000000004,0.00424429777383409,0.0
25.495420000000003,0.0009114440734183036,0.0
25.497816,0.0009114440734183036,0.0
25.500204000000004,0.0,0.0
25.502584,0.0,0.0
25.504984,0.0,0.0
25.507372000000004,0.0,0.0
25.509756000000003,0.0,0.0
25.512152,0.0,0.0
25.514540000000004,0.0,0.0
25.51692,0.0,0.0
25.51932,0.0,0.0
25.521704,0.0,0.0
25.524088,0.0,0.0
25.526484000000004,0.0,0.0
25.528872,0.0,0.0
25.531268,0.0,0.0
25.533664,0.0,0.0
25.536052,0.0,0.0
25.538432,0.0,0.0
25.540832,0.0,0.0
25.543216,0.0,0.0
25.5456,0.0,0.0
25.547996,0.0,0.0
25.550388,0.0,0.0
25.552768,0.0,0.0
25.555168,0.0011852957535309935,0.0
25.557556,0.008142680462966024,0.0
25.55994,0.018870053381888248,0.0
25.562336,0.03429858007007598,0.0
25.56472,0.055359426087307546,0.0
25.567100000000003,0.0800504906871661,0.0
25.569504,0.11023410498920828,0.0
25.571892,0.14819190899357135,0.0
25.574276,0.1917820323269782,0.009915457932218014
25.576672,0.24086470536256868,0.01957266954931968
25.57906,0.29064433067459106,0.029744125853499906
25.58144,0.3469874408754356,0.03948163029955745
25.583836,0.409754266338242,0.048923879279830766
25.586228,0.47815341113009224,0.058174536089383104
25.588608,0.5481806737581525,0.06770367509219075
25.591008,0.6261218957153941,0.07677097439836465
25.593396,0.71011474588226,0.0856010985263932
25.595776,0.7951313094075213,0.09449801762212774
25.598176,0.8809392688657007,0.10335881770528116
25.600564,0.9668869979507405,0.1121853274586878
25.602944,1.0497871001626924,0.12115421532933307
25.60534,1.1249130126723235,0.1303082731398327
25.607732,1.1954775410395493,0.13950295981062516
25.610112,1.2606892893314516,0.1487018764724499
25.612508,1.318685926428474,0.15798524556765053
25.6149,1.3766844593833656,0.16681787422103656
25.61728,1.4286785859568758,0.1756159672773217
25.619676,1.4713157309622287,0.1844890300005318
25.622068,1.513815002198591,0.18289093470826037
25.624452,1.5535226726134876,0.18123290879233225
25.626848000000003,1.5938838651923115,0.17890870002931136
25.629236,1.6273094858299755,0.17694995665583235
25.63162,1.6568725704595353,0.17502652736441285
25.634016000000003,1.6812226446406322,0.17320542993825067
25.636408000000003,1.7082283417320727,0.1707994678168149
25.638792,1.7254577483747755,0.16894780827646041
25.641188,1.7361236701286564,0.16729459824902823
25.643572,1.744834712964363,0.16562207034029078
25.645952,1.752102733561094,0.1639755322064151
25.648348,1.7604416893444632,0.16225808640310882
25.650736,1.767709709941194,0.16057190172388847
25.65312,1.7780507664709804,0.1586218337951087
25.655516,1.7891832189336847,0.15663113700603606
25.657904,1.8008275280755868,0.1546656366383002
25.660284,1.8151255642699635,0.15253832104426726
25.662684,1.820716349344372,0.15120473440885368
25.665068,1.8289608614712551,0.14973964655121277
25.667452,1.838927935090835,0.14816940378374907
25.669848,1.8392565920306676,0.14746101084481958
25.672236,1.8347424297165054,0.14725173415547346
25.67462,1.8290175625888445,0.14716125617914635
25.677016,1.8238045521403812,0.14710623478264923
25.679404,1.815238966505142,0.14733707092642684
25.681784,1.8063938416161827,0.1476238928163691
25.68418,1.792473580047751,0.14824314648821205
25.686572,1.7768307569866229,0.14898514691760165
25.688952,1.7609083946717743,0.14979579509371735
25.691348,1.747267672357063,0.1503881500374705
25.693736,1.7333474107886313,0.15105437823279744
25.69612,1.718216444406701,0.15182580442730173
25.698516,1.7084401539579632,0.15216064080773584
25.700904,1.696801532389669,0.15260002182921348
25.703288,1.6853026804482347,0.15300508713701524
25.705688,1.676225238133798,0.1531641427332149
25.708076,1.6680789613791396,0.15325922415891258
25.71046,1.6651475909308138,0.1529794222209468
25.712856,1.657280853429876,0.15302879554796156
25.715244,1.6494141159289382,0.1530752139268993
25.717624,1.6419666873085805,0.15304900616154893
25.72002,1.6347987979419434,0.1529670810318498
25.722408,1.628562074135085,0.1528194139053435
25.724792,1.6221855807013665,0.152704776667588
25.727188,1.614738152081009,0.15269138653136746
25.729576,1.605288622714235,0.15284479567857925
25.73196,1.5958390933474609,0.1530031945759807
25.734356,1.5921163269662166,0.1527369782290723
25.736744,1.5913268268911678,0.15224294253545062
25.739128,1.5873245212562035,0.1520444455637425
25.741524,1.5834619852480991,0.15180992773333263
25.743912,1.5789478229339373,0.15156645945481345
25.746296,1.5741541213660548,0.15138656332947026
25.748692,1.5693604197981723,0.15120642321316832
25.751084,1.5637753222973712,0.15105015083685586
25.753464,1.557119289609932,0.1509771188327748
25.75586,1.5465988250565192,0.15116813643760277
25.758252,1.5372890653166054,0.15122082666143732
25.760636,1.5329146726293033,0.15092456658491366
25.763036,1.5293316758749194,0.1506062673085087
25.765424000000003,1.5336173124793429,0.1497502006658667
25.767808,1.5419071505765998,0.148612478244573
25.770204,1.5491260534872184,0.14757363726708167
25.772588,1.5564847260246975,0.14650408442668156
25.774968,1.5655659600548728,0.14533808019110525
25.77736,1.5765095252046044,0.14403855123139567
25.779748,1.5862423855408376,0.1428326542552496
25.782124000000003,1.5927624403171552,0.14191688629296847
25.78454,1.5942073584140004,0.1413864979110897
25.786924,1.597374838003542,0.14076522759469887
25.789304,1.6022648790857799,0.14006282688957225
25.791708,1.6096688775936325,0.1392661989969087
25.794092,1.6129289049817914,0.1388055990491811
25.796472,1.6179114938626462,0.13826675574279063
25.798876,1.6232661697958388,0.13780469715072652
25.80126,1.6240575657287573,0.13778076609062856
25.80364,1.6274554668859074,0.13779684509946363
25.806036,1.6362986959169974,0.13801144243448626
25.808424,1.6471874558070092,0.13886103708804728
25.810816000000003,1.6658012877132296,0.1400700502143254
25.81322,1.6946069272330293,0.1416384774565121
25.815604,1.7395634547774168,0.1433040877690565
25.817984000000003,1.804535302212365,0.14487225921557073
25.820388,1.8872408295377365,0.1464930233542042
25.822772,1.9883788848878328,0.1480548902782757
25.825152000000003,2.1133041441958462,0.14938610829219198
25.827556,2.2563370663044893,0.15054421452411473
25.82994,2.4160346289747876,0.15156570301718908
25.832320000000003,2.595330098512935,0.1523205323120754
25.83472,2.7891483382394595,0.1530382513913349
25.837108,2.996138873714002,0.1538258422102185
25.839488000000003,3.2112265682570906,0.15482675609930568
25.841892,3.4435833078396483,0.15571287959418229
25.844276,3.689856517274899,0.1566972462277036
25.846656000000003,3.9531192324959,0.15762684343934644
25.84906,4.2393777557418995,0.15821189600285998
25.851444,4.54486209880341,0.15854594450529474
25.853824000000003,4.858028083768627,0.15877360232624127
25.856228,5.175479705338268,0.15847143801904912
25.858612,5.488838369332195,0.15777708604335347
25.860992000000003,5.785394518995478,0.15701362093373145
25.863388,6.055743950931715,0.15635978880783022
25.865776000000004,6.300817830700684,0.15582583633512473
25.868156,6.523409654981722,0.15529478899541085
25.870552000000004,6.727616173066279,0.15476178148918412
25.872936000000003,6.902168954580528,0.15454932196759824
25.875316,7.063641988145376,0.15437037652484323
25.877724,7.210405260066743,0.15427212937616738
25.880108,7.340736208851934,0.1542761632191782
25.882488,7.4568239267024685,0.15427630243473
25.884884,7.555642599513533,0.154282400422363
25.887268,7.644549003964738,0.15414063849257517
25.889648,7.712508922965604,0.15402393819155247
25.892044,7.762874931702905,0.15386265990593667
25.894428,7.795786799803505,0.15365699092666552
25.896808,7.8080317217074855,0.1534729346568828
25.899212,7.797652922638806,0.153409359691687
25.9016,7.769583873792204,0.1534867422597897
25.90398,7.733506421959935,0.1536931703719573
25.906376,7.695611964978482,0.15398583784001985
25.90876,7.661627265833378,0.15428786036395745
25.911140000000003,7.638489792323648,0.1544918586626275
25.913536,7.616515801799174,0.1547106285916007
25.915924000000004,7.597195538327176,0.15490015064146495
25.918304,7.571868972615928,0.15519351126434336
25.920700000000004,7.548032650971897,0.1554522505281681
25.923084000000003,7.518097479290001,0.15578497842434472
25.925464,7.4867192853691265,0.15612455041708245
25.927876,7.453338990701837,0.15650356955193437
25.930264,7.421913574952721,0.15688492716165214
25.93264,7.399473053719424,0.1571807621792606
25.93504,7.380290664016417,0.15748025435508875
25.937424,7.373445744016005,0.15762751584197146
25.939804,7.368695472560626,0.157772409435669
25.942204000000004,7.364317288157586,0.15793366655366123
25.944592,7.357657463754409,0.15814550619529052
25.946972,7.35234811379159,0.15832244335260234
25.949368,7.350111799761827,0.15844416875400713
25.951756000000003,7.349273182000665,0.1584896956153653
25.954136,7.3448496716272516,0.1585826656353699
25.956532000000003,7.340798248306175,0.15869172911989773
25.95892,7.335256580917879,0.15884340947029618
25.961296,7.34126098729926,0.15884913014527785
25.963696,7.353736330770847,0.15880076314955074
25.966084,7.375523329840217,0.15861829030252814
25.968468,7.404108027081754,0.15832654430462278
25.970864,7.437395773950427,0.15792771148957677
25.973252,7.471801677833982,0.15746893071889584
25.975632,7.511329940225252,0.15688294906180528
25.978028,7.549554950004406,0.15629672772983055
25.980412,7.58326390161153,0.15577741527833922
25.982792000000003,7.617112622845513,0.1552583783509327
25.985208,7.645746437773163,0.15484166308417652
25.987592,7.677545836432485,0.1544048552988983
25.989976,7.709298013263565,0.1540049215348112
25.992372000000003,7.745146939386096,0.15356767702735502
25.994756,7.783370053307381,0.15311472411894111
25.997136,7.819498518683632,0.1526618419234217
25.999540000000003,7.853113026634269,0.15223479265993034
26.001928,7.889847792346203,0.15171841491427704
26.004308,7.928911419886518,0.1511248132643758
26.006704,7.969045982613472,0.15051595558869163
26.009096,8.00024097679498,0.1500536459798604
26.011476,8.028922013550876,0.14962082762945134
26.013888,8.057183741426188,0.1492152095794117
26.016276,8.086236865234419,0.1488112919432635
26.018656,8.114079284229152,0.14843591208359827
26.021052,8.143784034343442,0.14804166462315765
26.02344,8.171346914084454,0.1476886856847919
26.025820000000003,8.199329102706047,0.14731752458006325
26.028236,8.226427347596106,0.1469234203895794
26.03062,8.251942800620325,0.14654246732403806
26.033,8.27666685771163,0.14616690245709765
26.035396,8.300739288496876,0.1457923583519905
26.03778,8.326301963349339,0.14538097631981148
26.040164,8.352423716709245,0.1449456318699083
26.04256,8.376962678203315,0.14451997236848987
26.044948,8.405086532309637,0.14405792640080292
26.047328,8.43321038641596,0.14359531000514433
26.049724,8.454536542350112,0.1432201466037512
26.052112,8.47185849679143,0.14290439493876034
26.054492000000003,8.486946033060859,0.14259632395413832
26.056884000000004,8.503663583024363,0.14224415810031224
26.059272,8.519310197801229,0.1419110143985794
26.061652,8.529090279965706,0.14165398416412703
26.064048,8.535657556570264,0.14144924895123412
26.066436000000003,8.5448785602273,0.14122109986497147
26.06882,8.548884657578004,0.14107035857470782
26.071216,8.549166092689594,0.14096089057755334
26.073608,8.547585196681627,0.14087217289391285
26.075988,8.5458645310468,0.14078983979767395
26.078384,8.538556872053304,0.14076938646062825
26.080772000000003,8.531668521940388,0.14072973153449223
26.083156,8.52519948070805,0.140670786642514
26.085552,8.518730439475716,0.1406117398936949
26.087940000000003,8.511981858989659,0.14056508890286573
26.09032,8.507607466302357,0.14050710605642897
26.092736,8.50002026805514,0.14049784560359846
26.095124,8.495506105740976,0.14044591314091104
26.097504,8.5010024471589,0.14026398261074324
26.099916,8.503845061524347,0.14010493275239053
26.102304000000004,8.50855000700935,0.1399268238561733
26.104684,8.514325887680991,0.1397331491152175
26.107096,8.520241537979494,0.13953389596004726
26.109484,8.535376296077164,0.13921166952827643
26.111864,8.547577787868638,0.13892313035059495
26.114268000000003,8.55577507816728,0.13868679445310772
26.116656,8.565974469212335,0.13842346475504338
26.119036,8.579758752869644,0.1381268410871531
26.121432,8.595684906900233,0.13779924357826756
26.12382,8.61067989537104,0.13748149340364815
26.1262,8.629679085334685,0.1371104008721544
26.1286,8.649097584178907,0.13672288845171085
26.130984,8.664232342276572,0.13639934273321772
26.133368,8.681229431493799,0.13605903355373694
26.135764,8.695944880710888,0.13575624052401736
26.138152,8.706004502129083,0.13550095987047758
26.140548000000003,8.723001591346309,0.13516210948367086
26.142944,8.738927745376897,0.13484163956715253
26.145328,8.748428288287652,0.1346162144714069
26.147712,8.760722327877744,0.1343622916771917
26.150108000000003,8.767569143736026,0.13415786066975616
26.152496,8.772693398101609,0.13396625150487948
26.154876,8.775024155787857,0.13380227017946905
26.157272,8.768275575301802,0.13375177721520148
26.15966,8.769535397801413,0.13360414697207518
26.162044,8.770003824368107,0.13345914510424756
26.16444,8.772614121308077,0.13328389110374061
26.166824,8.772570691195574,0.13312989326560068
26.169208,8.770245621082932,0.13301230965014718
26.171604,8.766989385410511,0.13290354605930857
26.173992,8.765875020111368,0.13276480511752267
26.176372,8.760337144438811,0.13269219383007816
26.178776,8.758943239885948,0.13256531074479885
26.181164000000003,8.749960241227997,0.1325167647737699
26.183544,8.742607256264126,0.13242884683521391
26.18594,8.739118703166227,0.13229835987552513
26.188324,8.726690581522885,0.13227385190578436
26.190724000000003,8.713843150998962,0.13226700559810578
26.19312,8.701135490101896,0.1322542711187215
26.195504,8.687356894018194,0.1322564882671031
26.197888,8.678745982412583,0.13222258445414015
26.200284000000003,8.670646927486166,0.13219771870365607
26.202672,8.665481138865946,0.13213955928760188
26.205052,8.662596990245863,0.13204482490003155
26.207448,8.649842107520557,0.1320654205911807
26.209836000000003,8.64081188703436,0.13204950290948217
26.212216,8.633224688787145,0.13203329349271745
26.214612,8.628151447965543,0.13200220909227695
26.217,8.626011473450133,0.13193815659345967
26.219396000000003,8.62666499561406,0.13184725960312035
26.221792,8.623034777031434,0.13181615455477128
26.224176,8.623688299195361,0.13172516426969386
26.22656,8.621268785426233,0.13167303177283396
26.228956000000004,8.627509300948832,0.1315287961569577
26.231344,8.635472377964124,0.13137371682611246
26.233724,8.643575224606277,0.13121337439560793
26.23612,8.658755308674323,0.13096764580103434
26.238508000000003,8.671141896063029,0.13074784075029608
26.240888,8.685530584198153,0.13050488579678207
26.243284000000003,8.699919272333279,0.13026139811824453
26.245672,8.71193377266965,0.13002694118354935
26.248056,8.725298747446377,0.12976656736911293
26.250452000000003,8.735730455916913,0.12953823197931025
26.25284,8.750817992186338,0.12926835034341833
26.255232,8.771911830695014,0.1289268501435126
26.257632,8.790212172524354,0.1286122551227218
26.26002,8.80706949211472,0.1282995083332917
26.2624,8.823275185399028,0.1279842404848453
26.264796,8.83640784275028,0.12770703433012617
26.267184,8.847258860101395,0.12746462269780695
26.269564000000003,8.860111978198926,0.12719869156913347
26.27196,8.868821125176764,0.12698415186407846
26.274348000000003,8.8799516817816,0.12672933391575505
26.276732000000003,8.88721780652046,0.12651576173434598
26.279128,8.891271125699406,0.12634525370231323
26.281512,8.895044905624632,0.12618701015802505
26.283908000000004,8.892672613683747,0.126101984983936
26.2863,8.890300321742862,0.12601669028526125
26.288688,8.887928029801975,0.1259315214116447
26.291064,8.890491104913702,0.12579385249941302
26.293460000000003,8.894636971891266,0.12565164078577645
26.295844,8.896501198868691,0.12554335196923047
26.29824,8.899156821779036,0.1254323447068618
26.300636,8.894223350584294,0.12539267544070817
26.303024,8.89008127532247,0.1253506255687519
26.305404000000003,8.889803631926616,0.12527055730567968
26.307808,8.88724434853063,0.12522391921730555
26.310196,8.890411828120172,0.12512432778777582
26.312576,8.894790012523213,0.1250053149462593
26.314972,8.90037890173975,0.12486674658894706
26.31736,8.906898956516066,0.12472060714849413
26.319740000000003,8.918494147971858,0.12451787270353243
26.322144,8.931811900920344,0.12430727712521616
26.324532,8.945548962749411,0.12408020641388331
26.326912,8.963849304578753,0.12378963446975236
26.329316,8.98070662416912,0.1234978660891351
26.331704,9.004501411558511,0.123136272897949
26.334084,9.035233666746935,0.12270703267292615
26.33648,9.062753116375443,0.1223170453038433
26.338868,9.086268364511117,0.12197165810148562
26.341248,9.108992216713872,0.12162927246115497
26.343644,9.133857939289904,0.1212612110535804
26.346032,9.16286763298563,0.12084861830252899
26.348412000000003,9.196533154480246,0.120397338589135
26.350808,9.227684718549249,0.11995893736100828
26.353196,9.252969750005864,0.1195764560850676
26.355576,9.28146758702239,0.11915650910967404
26.35798,9.300094689933696,0.11883340418231295
26.360368,9.319513188777917,0.11850952799599264
26.362748000000003,9.342004723555194,0.11815520062414359
26.365152,9.364775797586192,0.11779172023051045
26.36754,9.388478037176968,0.11742502076850675
26.36992,9.406173974528494,0.11711717432697502
26.372316,9.425312934118995,0.11681330231814166
26.374704,9.444172354455777,0.11652401580624233
26.377084000000004,9.464614566658394,0.1162324780411398
26.37948,9.481611655875616,0.11595972057066967
26.381868,9.491811046920672,0.1157455501946115
26.384248,9.50922744501848,0.1154602310918753
26.386652,9.525852447183368,0.11517621531994805
26.38904,9.541266744534754,0.11490917598010214
26.391420000000004,9.554818710766588,0.11465569467446997
26.393816,9.565437410692224,0.1144284043131064
26.396204,9.578197980991142,0.11417945106008158
26.398584,9.592261803902172,0.11393878275657249
26.400988,9.612331929052452,0.11364467488936202
26.403376,9.629468787896538,0.11337588802714182
26.40576,9.651960322673816,0.11304865429574788
26.408156,9.672869065585257,0.11272434047217822
26.410544,9.691915477377144,0.11241524040359178
26.412924000000004,9.710961889169027,0.11210785245181411
26.415328,9.725864329841217,0.11184163262677023
26.417716,9.741697936073187,0.1115674692014217
26.420096,9.752735944879408,0.1113291849494347
26.422496,9.756836485886595,0.11114963437461779
26.42488,9.762939127640202,0.11095365694993371
26.42726,9.768342921259507,0.1107834974837962
26.429664,9.773606945251952,0.1106177481559144
26.432052,9.772073271072228,0.11050560579736382
26.434432,9.77240192801206,0.11038140756090797
26.436836,9.77594339051181,0.11022402233136588
26.439224000000003,9.783209515250672,0.11004325974926871
26.441604,9.79154657517617,0.10985202281264181
26.444008000000004,9.793737563235561,0.10971674183944272
26.446396,9.79862950017567,0.10954017622104897
26.448776,9.798725839690027,0.10939815284509974
26.451172,9.796540539204244,0.10928246653593646
26.453556,9.791794059464603,0.10920370435867266
26.455936,9.786488501217523,0.10914505019066299
26.458336000000003,9.777970137410527,0.10911900499286624
26.46072,9.769032464722951,0.10910791651395689
26.4631,9.762376432035511,0.10907001365581678
26.465504000000003,9.760004140094628,0.10898882545544238
26.467892,9.761636049646576,0.10887434387940331
26.470272,9.76606145587786,0.10874178559664394
