Time,Force,Position
24.36388,0.1707674932034202,0.0
24.366268,0.16811376615094542,0.0
24.368652,0.16438910391183217,0.0
24.371048,0.16052467204585866,0.0
24.37344,0.1575914057396635,0.0
24.375824,0.1529355779407719,0.0
24.37822,0.1482797501418803,0.0
24.380612,0.14083042566365372,0.0
24.382992,0.1378046115588415,0.0
24.3854,0.13049505670747516,0.0
24.387792,0.11931202018890416,0.0
24.390176,0.10958105571054033,0.0
24.392584,0.09839801919196935,0.0
24.394972,0.08814614823317671,0.0
24.397356,0.08321078118056467,0.0
24.399756,0.07734424856817435,0.0
24.402148,0.0712363487290756,0.0
24.404536,0.06526821851683706,0.0
24.406936,0.05715821793132146,0.0
24.409324,0.051841714025140824,0.0
24.411712,0.047456375678738505,0.0
24.414108,0.04200010214569766,0.0
24.416496,0.03654382861265681,0.0
24.418884,0.031227324706476177,0.0
24.42128,0.023908720053878688,0.0
24.423672,0.01738151133419931,0.0
24.426056000000003,0.009923137054741614,0.0
24.428456,0.006430792241105599,0.0
24.430844,0.002658908173749167,0.0
24.433228,0.008106131905558879,0.0
24.435628,0.013934492490937206,0.0
24.438016,0.019381716222746915,0.0
24.440416,0.02427891124834692,0.0
24.44282,0.031178207020363776,0.0
24.445212,0.03490286925947706,0.0
24.447608,0.03862753149859034,0.0
24.450008,0.04352472652419035,0.0
24.452396,0.04735098636315183,0.0
24.454796,0.050106311015474775,0.0
24.457212,0.05486373641421457,0.0
24.459596,0.05855022662631583,0.0
24.461992,0.06423881758483395,0.0
24.4644,0.07085857410313039,0.0
24.466796,0.07934066174098346,0.0
24.469192,0.0859604182592799,0.0
24.471584,0.09150923959093782,0.0
24.473976,0.09812899610923424,0.0
24.476372,0.10450738540082229,0.0
24.47876,0.10995460913263198,0.0
24.481156,0.11060623543868989,0.0
24.483556,0.11232879693138631,0.0
24.485944000000003,0.10962784805066843,0.0
24.48834,0.1101397047298661,0.0
24.490744,0.10692689916995052,0.0
24.493128,0.1106515614090638,0.0
24.495508,0.11637832439459393,0.0
24.497912,0.12224485700698426,0.0
24.500300000000003,0.1313241951792902,0.0
24.50268,0.1414744685382347,0.0
24.505076000000003,0.15176451152403939,0.0
24.507464,0.16512759044289943,0.0
24.509860000000003,0.17355530230914745,0.0
24.512256,0.18198301417539547,0.0
24.514644000000004,0.1856151286158917,0.0
24.517024,0.18896770380266747,0.0
24.519420000000004,0.1924600486163035,0.0
24.521808,0.19488145824330097,0.0
24.524188,0.19544053675074177,0.0
24.526584,0.19800171600459954,0.0
24.528972000000003,0.2013542911913753,0.0
24.531352,0.2031240745123149,0.0
24.533748000000003,0.21103992969936528,0.0
24.536132,0.21588274895336027,0.0
24.538528,0.2209578856328325,0.0
24.540932,0.22132997268517,0.0
24.54332,0.214437830856515,0.0
24.545700000000004,0.20693938869217607,0.0
24.548096,0.20013789880426888,0.0
24.550484000000004,0.19882895861854535,0.0
24.552864,0.20096324556034548,0.0
24.555260000000004,0.20560959406989085,0.0
24.557648,0.22021732862540808,0.0
24.560028000000003,0.2373371247486707,0.0
24.562424,0.2676311124778207,0.009673357881547523
24.564812000000003,0.3105874351336604,0.018595708908748357
24.567196000000003,0.3597804815963588,0.02769579560191871
24.569592,0.4141393166792771,0.03699127551848388
24.571976,0.48088094743516485,0.04584265011782468
24.574356,0.5518572012514944,0.05475298378534787
24.57676,0.6262766821953474,0.06385857418585646
24.579148000000004,0.7113091754912302,0.07273257685039769
24.581528,0.8016472270341932,0.08159226173535865
24.583928,0.9028778301829066,0.0902779149256416
24.586312,1.0143965804595552,0.09879253633855746
24.588692,1.1355518515580814,0.10713716728633206
24.591100000000004,1.2714660019862005,0.11525149374002498
24.593484000000004,1.4137585417059078,0.12325154299896537
24.595864,1.5590315695600534,0.13110374710587988
24.598264,1.7022571706974081,0.13886098765800134
24.600652000000004,1.8378955735875455,0.14670181351298708
24.603032,1.9723723893502965,0.15437344956180366
24.605428000000003,2.1025220342539885,0.16187824258931519
24.607816,2.2308584657242365,0.16926750270045063
24.6102,2.3464400144691777,0.16703695226919996
24.612604,2.4509892419815085,0.16553486935805417
24.614988000000004,2.5509317593810596,0.16376825440590764
24.617372000000003,2.644405235548275,0.1617951327013755
24.619768,2.7260549945499615,0.16027238437041133
24.622152,2.801235712319313,0.15863221015995907
24.624548000000004,2.871809719975886,0.15673813710386156
24.626944,2.9321900241610086,0.15501683358012303
24.629332,2.985449660807738,0.15321596223180858
24.631712,3.026793032490321,0.15156849746449763
24.634108,3.059106183686711,0.1500321575171344
24.636496,3.0814579488371283,0.1486158347952799
24.638876000000003,3.095151580553691,0.14732442585164277
24.641272,3.1006989355155947,0.14613135289497448
24.643660000000004,3.0957711518944597,0.14522629096550388
24.64604,3.086746618981875,0.14440848704214373
24.648436000000004,3.0802832653231462,0.1434338896661152
24.650824,3.069675940544724,0.14263873328495646
24.65322,3.0566472061393046,0.14197380805357615
24.655616,3.0402658965471097,0.14146332311882087
24.658004,3.025886687701331,0.14087256473847057
24.660384,3.0062925725492198,0.140504158023213
24.662788,2.9872103140763064,0.14015265165215096
24.665176,2.9689194515363115,0.139784944188285
24.667552,2.9492781145559577,0.13950470849958788
24.669948,2.9261444327619675,0.1394140948814466
24.672336,2.901380737273898,0.13945051495184277
24.67472,2.873264466599053,0.1396669250876286
24.677116,2.8443095781630463,0.13999224315006095
24.679504,2.814516071965879,0.14045139723019515
24.681884000000004,2.7850946528210483,0.14094807815238364
24.68428,2.7548346159150565,0.1415726723787157
24.686668,2.7209424645685685,0.14242416014765602
24.689048,2.687841709154999,0.14326251477630167
24.691448,2.659536551167181,0.1439371958972906
24.693832,2.63323349392578,0.1445092327759271
24.696216,2.608513228550215,0.14503083033770162
24.698612000000004,2.580999466495315,0.1456763885741579
24.701,2.549481502947582,0.14652549323719652
24.703396,2.5218279712658225,0.14720329263808746
24.705792,2.4957572314498986,0.14784342867107592
24.70818,2.4798367649929194,0.14801520143683364
24.71056,2.461774428162663,0.14829399605784294
24.71296,2.446365818384881,0.14848236086210445
24.715344,2.4321679134205985,0.14860513370164624
24.717724000000004,2.4261181810688437,0.1483481032283577
24.720128000000003,2.4232812542770037,0.14792656532938764
24.722516,2.4241689897242775,0.14736297145241578
24.724896,2.422914854798274,0.14690454426373473
24.727292,2.4265960869248833,0.14622411428502388
24.72968,2.428414987931935,0.14561061068634343
24.732064,2.4334466944989033,0.14482292500945687
24.734456,2.442482602558704,0.14384023632145582
24.736844,2.452030367297703,0.14288662198153307
24.739224,2.4627888368502004,0.14186396384005381
24.74162,2.470054961589062,0.1410548893313248
24.744008,2.47345665446195,0.14041241416041572
24.746404,2.4844474414399245,0.13946915224335776
24.748800000000003,2.500233825843652,0.13830883666025376
24.751188,2.514157879127822,0.1372407141162252
24.753568,2.525148666105797,0.13629624852345218
24.755964,2.532647108270136,0.1355904869851937
24.758352,2.541496024874834,0.1347870895054057
24.760732000000004,2.5494137759197537,0.13403276403905537
24.763128,2.561987354763565,0.13312841715222296
24.765516,2.5670643873009067,0.13259459187266004
24.7679,2.5720016502113876,0.13208946686570439
24.770296,2.5777303090547865,0.13157780668419378
24.772684,2.590675974950935,0.13076515022903173
24.775068,2.59933790010053,0.13015025895225568
24.777464,2.6097223867428205,0.12949082141081433
24.779852,2.6167542981983356,0.12900005272199344
24.782232,2.622715274467213,0.12856341771909097
24.784628,2.629747185922728,0.1280809042609741
24.787016,2.6323555870048287,0.12781108095017532
24.7894,2.6360349232735683,0.1274859694611584
24.791796,2.641157281781284,0.1271578576152573
24.794180000000004,2.6372003021166934,0.12720841224410656
24.796576,2.633103552825242,0.12727782008583916
24.798976000000003,2.6295186602129887,0.1273773388125458
24.801360000000003,2.629518660212989,0.12737733881254576
24.803744,2.626445624279934,0.1275098516220077
24.80614,2.6225339705857174,0.12776570474046497
24.808528000000003,2.6162009072645027,0.12816487158714712
24.810908,2.607446434316291,0.12869569783241744
24.813308,2.6001349836070555,0.12924514779807106
24.815696000000003,2.593567707002495,0.1298889584836949
24.818076,2.588955309316108,0.13055305598367473
24.820480000000003,2.5811754320401796,0.13154777492410352
24.822864000000003,2.5813095140934323,0.13243390316018686
24.825248,2.587448002528066,0.13336656173303874
24.82764,2.602244624396556,0.1342761054226226
24.830028,2.625000531564601,0.13524471476703082
24.832408,2.654505019218702,0.13632818323425214
24.834808,2.69662461997125,0.13731680885439562
24.837192,2.752570038635743,0.13816205429498438
24.839576,2.816334972972931,0.13905379577495208
24.84198,2.90272552414065,0.13952884697835416
24.844368000000003,2.99879792210062,0.14003113307259982
24.846748,3.1003156479345306,0.14061200476377603
24.849144000000003,3.207558240896102,0.14125580823211054
24.851532,3.324110593597587,0.14184060357085335
24.853912,3.44797060529257,0.14242554475004693
24.856312000000003,3.5817920030335246,0.14295972056562792
24.8587,3.7229210597679763,0.14351344148208972
24.86108,3.8769919906828383,0.14386477057468341
24.863484,4.037766176113382,0.14416974600334254
24.865868,4.200448018633857,0.14453499015321455
24.868252,4.368437315259281,0.1447402650975176
24.870648000000003,4.535774985578647,0.1449495448500172
24.873036,4.701856625114141,0.14507653038259266
24.875416,4.865378981253649,0.14511650815906177
24.87782,5.02066251283988,0.14512551210110916
24.880204,5.167195363193638,0.1450800284344279
24.882588,5.307538711568781,0.14493143157390934
24.884984000000003,5.4331250764722,0.14491544098707274
24.887372,5.553313335329921,0.14476720120500208
24.889756,5.652226451797472,0.14488071228540317
24.892152000000003,5.740526555912991,0.1449982543730676
24.89454,5.823101792900851,0.1450590917598954
24.89692,5.901814493880607,0.1450486709383639
24.899324,5.9761528021730586,0.14495247977799838
24.901712000000003,6.046675796285652,0.14473507410416242
24.904092,6.108867418046351,0.1444685560461089
24.906488000000003,6.163519063388077,0.1441475364889803
24.908876,6.206998617870332,0.14388003589516832
24.91126,6.2399577077991735,0.14365889880711674
24.913656000000003,6.27012519690655,0.1433493021863028
24.916044,6.2968022370581584,0.14300182627161367
24.91842,6.320081376052618,0.14265210501525363
24.92082,6.340334700942266,0.14232047735260006
24.923204,6.356351506913601,0.14203471527688505
24.925600000000003,6.373159708817853,0.14174366700331648
24.928000000000004,6.395834443334497,0.14135858057350398
24.930388,6.416087768224143,0.14103887451440908
24.932768000000003,6.4386227331139265,0.1406660563360353
24.935164,6.460366302070791,0.1403029473810647
24.937552000000004,6.483832432520351,0.13991519220903315
24.939932,6.509300663716329,0.1394949310761726
24.942328000000003,6.535048434166027,0.13905861169463216
24.944716,6.558933873496169,0.1386545349426991
24.947096,6.583610708759229,0.13825264083219513
24.949496000000003,6.605074738462374,0.13791673891598658
24.951884,6.627842020777635,0.1375902273564681
24.954264,6.653635117197707,0.13725766617035065
24.95666,6.679008904737199,0.1369487376629975
24.959048000000003,6.710249224889083,0.1365519322597392
24.961432,6.739627213921408,0.13618292989298192
24.963828,6.76542031034148,0.13585819083466527
24.96622,6.788559679709079,0.13556262124491694
24.9686,6.807974386837563,0.1353151339763299
24.970996,6.828320259525826,0.13505560725640023
24.973384000000003,6.8518789377740035,0.13473982795214276
24.975768,6.8712936449024875,0.13449990234337247
24.978164,6.891499747963891,0.13425765087238203
24.980552000000003,6.913288642891129,0.13400933773989848
24.982932,6.934518459310927,0.13379356052507652
24.985332,6.95882131166378,0.13352706063665604
24.987720000000003,6.977397401031103,0.13333684194550235
24.990116,6.99453046815945,0.13314709327303983
24.992512,7.007287246742626,0.13299964320647292
24.9949,7.015667736780632,0.13289584783367092
24.997284,7.024187996445497,0.13278429874771153
24.99968,7.031916860177445,0.13267736865065974
25.002068,7.034478039431303,0.13261662749338976
25.004448000000004,7.039181089058437,0.13251816414716516
25.006844,7.0388090020061,0.13249934614814068
25.009232000000004,7.039507850140401,0.1324618345887555
25.011616000000004,7.042860425327176,0.13239847783739106
25.014012,7.047563474954311,0.13230153611048814
25.016400000000004,7.0537567686486655,0.1321628548730418
25.018784000000004,7.06064891047732,0.13198760404110046
25.02118,7.057949857454472,0.1319383422779311
25.023568,7.054599178125564,0.1318852498378828
25.025948,7.048874310997904,0.13184299199558058
25.028344000000004,7.0423580479373245,0.13180413423081183
25.030736,7.03439876263777,0.1317648674118246
25.033116,7.0245771462186575,0.1317473658586439
25.035512000000004,7.022763932785214,0.13161251176587938
25.0379,7.022952820098187,0.1314485913869831
25.040284,7.027285678530853,0.13121876339936836
25.042680000000004,7.033900176963657,0.13094560008995965
25.045068,7.044007020210096,0.1306056957518396
25.047448000000003,7.051739675657782,0.13027559631765073
25.049848000000004,7.062685136665384,0.12989175205108924
25.052232000000004,7.075679920247644,0.12944411922452925
25.054616000000003,7.089233782337347,0.1289662141437449
25.057016000000004,7.100925313307492,0.12851000966157985
25.059404,7.109031951665384,0.12808854280241136
25.061784000000003,7.116998820396416,0.12767515279830496
25.06418,7.127619416179924,0.1272398380134436
25.066568000000004,7.133956271216875,0.12687365260510688
25.068952000000003,7.150443399612771,0.1263611190108038
25.071348,7.168420772075889,0.1258120198055205
25.073736000000004,7.186537914165864,0.12525518734869004
25.076116,7.203072264390005,0.12470526277497648
25.078516,7.221329176106842,0.12414325049402203
25.080904000000004,7.241867727823816,0.12354105298076543
25.0833,7.256399977301538,0.12302350209987328
25.085696,7.272654788271959,0.12249825319806112
25.088084,7.287419355175161,0.12201294835045268
25.090468,7.298831346891586,0.12158503183079893
25.092868000000003,7.307170302674955,0.12120321124803728
25.095256,7.320304855884076,0.12076919018840146
25.097636,7.3320889346528375,0.12036715594545917
25.100032,7.337959258980966,0.12007556660963078
25.10242,7.3455521448017915,0.11977318929852007
25.104804,7.359011563235008,0.1194057925029488
25.107208,7.376195643907336,0.11900334366967925
25.109596000000003,7.394450659766303,0.11858704455465242
25.111976,7.411774510065492,0.11818271741931688
25.114372000000003,7.434173497044154,0.11771405838856898
25.11676,7.4504264121567045,0.11732797033879451
25.11914,7.461464420962922,0.11701164375744995
25.121540000000003,7.471291724955642,0.11671666988334446
25.123924,7.478977158575083,0.11645144897903739
25.126308,7.482006764395635,0.11622902395240185
25.128704,7.482754730216048,0.11604490024710769
25.131096,7.48322315678274,0.11587357547482573
25.133476,7.479966921110321,0.11573768891880962
25.135876000000003,7.477269763945341,0.11557441539456273
25.138264,7.4768542467804995,0.11537287846089027
25.140644,7.473225924055742,0.11521748187841165
25.143044000000003,7.462240824651375,0.11516425949741287
25.145428000000003,7.448462228567673,0.11513734267029109
25.147812,7.43589433729747,0.11508810093070475
25.150208,7.420253410094212,0.11507913703387673
25.152596000000003,7.3953933750917855,0.11519054240576265
25.154976,7.36331633303661,0.11540073975375591
25.157376,7.326955550234881,0.11567534798624708
25.159764000000003,7.29045499780629,0.115954125903262
25.162144,7.2546060716837575,0.1162324378458044
25.164544,7.223273203733257,0.1164730772463578
25.166932000000003,7.1971080202608455,0.11668382784458461
25.169312,7.175598664587325,0.11685008919229678
25.171712,7.156603266339419,0.1170054197127405
25.174100000000003,7.1439862573831014,0.11710676974636168
25.176484,7.1321606443597005,0.1172064551379066
25.17888,7.124479002455996,0.11725031760435607
25.181268000000003,7.11637805167171,0.11731523710520116
25.183652,7.109161044618959,0.11741076249554414
25.186052000000004,7.101384959058767,0.11753378652879379
25.188436000000003,7.09598306129733,0.11765238710082725
25.19082,7.097239092081201,0.11770261745786152
25.193220000000004,7.1047337425298,0.11770505547655748
25.195608,7.114742350404014,0.11769512399539271
25.197988,7.125262814957425,0.11769658777641284
25.200388000000004,7.1425809776830045,0.11762112716178834
25.202776,7.166045212274697,0.117461387759427
25.20516,7.195096440225061,0.11724652605584646
25.207556000000004,7.223868128921705,0.11704707094301398
25.209944,7.243560479446038,0.11696258333588778
25.212332000000004,7.258457232544624,0.1169309369772597
25.214728,7.27284212896401,0.11688773813382682
25.21712,7.284014219823483,0.11689314682453349
25.219504,7.297188411429372,0.1168737895284585
25.2219,7.311433538221899,0.11684014024494234
25.224292,7.328332392066901,0.11678766886492334
25.226672,7.343880771471543,0.11676541048625658
25.229076,7.359289381249327,0.11674916588191299
25.23146,7.37032170248194,0.11676229367634668
25.23384,7.380422858154774,0.11678394080754935
25.236232,7.392014257894828,0.11676898376981776
25.238616,7.402022865769045,0.11675840237830293
25.240996000000003,7.407515415471228,0.11678473564356254
25.243392,7.411285403680718,0.1168215720707012
25.245776,7.420410067823399,0.11678134186311247
25.248156,7.426881004913606,0.1167604904167629
25.25056,7.434143337936731,0.11673828002637852
25.252948000000004,7.441685210213574,0.11670336473117059
25.255328,7.445502420251304,0.11670161664123234
25.25772,7.45946990364798,0.1165747774371222
25.260104,7.477301818910628,0.11640715756678258
25.262500000000003,7.4929918638,0.11626995600053844
25.264904,7.510032383129731,0.11610429412072441
25.267288,7.52320847059349,0.11597906646594827
25.269668000000003,7.530518025444856,0.11591840561160703
25.272064,7.535034083616887,0.11588319771389786
25.274448,7.537967349923081,0.11585138600834098
25.276828,7.544113421789191,0.11577449394237425
25.279232,7.554263695148137,0.1156502423958358
25.281616,7.5694891051865545,0.11546518753538014
25.283996,7.588718716717804,0.11523718624669572
25.2864,7.607017162689275,0.11501824002865936
25.288784,7.627317709407166,0.11477661634132666
25.291164,7.648689191311695,0.11452103034194988
25.293556,7.66540484541733,0.11430806772699094
25.29594,7.681049564336327,0.11410941604235741
25.298336,7.695902887322406,0.11391359150724868
25.30074,7.706100382509594,0.11375805592876319
25.303124000000004,7.719370913629836,0.11356468319360016
25.305504,7.732129588070882,0.11336336005289707
25.307896,7.745307571392508,0.11314474185536613
25.310284000000003,7.761558590647189,0.1128907576243072
25.31266,7.781953581021564,0.11259136809754164
25.315068000000004,7.807563477702273,0.11223025873570336
25.317452000000003,7.836665719196616,0.11181521323992306
25.319832,7.864464708078844,0.11138893823784038
25.322236000000004,7.8941260280806285,0.11094826505491387
25.324624,7.921133621029939,0.11052538949775699
25.327004,7.951354019539164,0.1100669453413165
25.3294,7.975847655062858,0.10966088326188414
25.331784,7.992472657227746,0.10933310005371401
25.334180000000003,8.010959990512191,0.10899249183166893
25.336576,8.029447323796635,0.10865340531062637
25.338964000000004,8.046351865215243,0.10831690752296895
25.341344,8.06311663700699,0.10798605900248448
25.343744,8.08109211361224,0.10763566425771864
25.346132000000004,8.099486899098068,0.10726896848786807
25.348512,8.122956821263367,0.10685086227669999
25.350908000000004,8.149360009734862,0.10640886217027391
25.353296,8.172270853392721,0.10602104383056171
25.355676000000003,8.190386099624828,0.10567353876295867
25.358072,8.203985287684903,0.10535363660689342
25.360456,8.210507238319087,0.105106328264473
25.362852000000004,8.217029188953274,0.1048615554633198
25.365256,8.221129729960461,0.10465386221366041
25.36764,8.23109680358004,0.10439714543302837
25.370020000000004,8.2414831860802,0.1041240531836763
