Time,Force,Position
28.829976,0.06859156351758253,0.0
28.832364,0.06318565410694311,0.0
28.834744,0.05791951432316393,0.0
28.83714,0.05265337453938474,0.0
28.839528,0.04538513400918869,0.0
28.841912,0.03690618866549391,0.0
28.844308,0.030569113695076183,0.0
28.846696,0.020879463537882656,0.0
28.849076000000004,0.010118878194050598,0.0
28.851484,0.003362494343052243,0.0
28.853872000000003,0.003642033596772663,0.0
28.856256,0.004531884835380673,0.0
28.858652,0.007744690395296265,0.0
28.861044,0.014640843873154829,0.0
28.863424,0.0216767669778736,0.0
28.86582,0.0296438556423707,0.0
28.868208000000003,0.035888382814171366,0.0
28.870592,0.04492640666530699,0.0
28.872988,0.05196232977002577,0.0
28.875376000000003,0.05792731768810601,0.0
28.87776,0.06454393191224415,0.0
28.880156,0.07409381244257747,0.0
28.882544000000003,0.08164159222649393,0.0
28.884928,0.09133124238368746,0.0
28.887324,0.1019520581006593,0.0
28.889712000000003,0.11043100344435408,0.0
28.892092,0.11863040953432846,0.0
28.894488000000003,0.12310515338518954,0.0
28.896876,0.1258573357433542,0.0
28.89926,0.12888905735523928,0.0
28.90166,0.12692827092999273,0.0
28.904048000000003,0.12603841969138474,0.0
28.906428,0.12114436695994302,0.0
28.908824000000003,0.11424821348208444,0.0
28.911212,0.10721229037736567,0.0
28.913592,0.09924520171286856,0.0
28.915992000000003,0.0930006745410679,0.0
28.91838,0.08396265068993228,0.0
28.92076,0.0769267275852135,0.0
28.923160000000003,0.07096173966713326,0.0
28.925548,0.0643451254429951,0.0
28.927928,0.05479524491266178,0.0
28.930324,0.04724746512874532,0.0
28.932716,0.0375578149715518,0.0
28.9351,0.026936999254579957,0.0
28.937496000000003,0.01845805391088517,0.0
28.939884,0.010258647820910809,0.0
28.942268,0.005783903970049725,0.0
28.944664000000003,0.003031721611885073,0.0
28.947052,0.0,0.0
28.949432,0.0,0.0
28.951832000000003,0.0,0.0
28.95422,0.0,0.0
28.956604,0.0,0.0
28.959000000000003,0.0,0.0
28.961388,0.0,0.0
28.963768,0.0,0.0
28.966168000000003,0.0,0.0
28.968552000000003,0.0,0.0
28.970936,0.0,0.0
28.973336000000003,0.0,0.0
28.975724,0.0,0.0
28.978104,0.0,0.0
28.980504000000003,0.0,0.0
28.982892,0.0,0.0
28.985272,0.0,0.0
28.987672000000003,0.0,0.0
28.99006,0.0,0.0
28.99244,0.0,0.0
28.994836,0.0,0.0
28.997228,0.0,0.0
28.999608,0.0,0.0
29.002012,0.0,0.0
29.0044,0.0,0.0
29.006784000000003,0.0,0.0
29.00918,0.0,0.0
29.011572,0.003913769485550997,0.0
29.013956,0.010014735314752964,0.0
29.016352,0.017883588607025276,0.0
29.018744,0.029242890855064353,0.0
29.021124,0.047817304297983476,0.0
29.023524,0.06625005225617313,0.0
29.025912,0.09119906327494182,0.0
29.028296,0.12704062589946066,0.0
29.030696,0.16842006419653704,0.010805982068442407
29.033084,0.2218555370846192,0.020747714928258873
29.035464,0.2842267868024086,0.030788387707536634
29.03786,0.3591187059621583,0.04056111167501748
29.040252,0.44541313754898665,0.05042520630757648
29.042632,0.5494884708544816,0.05991712307975017
29.045032,0.6743705199834555,0.06906181460752726
29.04742,0.8187088104955496,0.07806174360128859
29.049804,0.98450544313718,0.08686058438222768
29.052204000000003,1.1711087916022895,0.09550432845630746
29.054592,1.37786722958482,0.10402361612110446
29.056976,1.6046409874579113,0.11245327904275346
29.059372000000003,1.8470044390568146,0.12079533747603903
29.061764000000004,2.1063120704710925,0.12904007340380366
29.064148000000003,2.3835422690887667,0.13716059779305848
29.066544,2.673527350431747,0.14522358023795587
29.068928,2.9688179900218086,0.15330152072338032
29.071312,3.2824051797254725,0.16125356105157057
29.073708000000003,3.6031149328253997,0.16915793183501807
29.076092000000003,3.9203323411116915,0.17710319335748684
29.078476,4.241833490144538,0.17422187830041183
29.080872,4.556863702087179,0.17223198160672543
29.083260000000003,4.868450686902299,0.17013809060748206
29.085644,5.170635364178887,0.16832588495021128
29.08804,5.466165904625906,0.16638525130840906
29.090428000000003,5.74601019189929,0.16481326771804092
29.092808,6.001974727416142,0.16364379857746642
29.095208,6.236760460057177,0.16263904096418358
29.097596000000003,6.445571792396643,0.16189739118988772
29.09998,6.630503372979575,0.16136864830822853
29.102376,6.796211029604865,0.1609500694529094
29.104764000000003,6.940972200779815,0.16063540772368098
29.107144,7.0626450161311505,0.16045849527005226
29.109540000000003,7.1625327282709845,0.16041520576755836
29.111932000000003,7.241798820184574,0.16051095886788586
29.114312,7.30467981079023,0.16067209820759054
29.116708000000003,7.354248736021007,0.16082534227432727
29.119096,7.3819381143837965,0.161164886535312
29.12148,7.394917731103107,0.16157539810785793
29.123876000000003,7.401428306590081,0.16192969631306742
29.126264,7.401981697523915,0.1622362138538612
29.128648,7.39559951651659,0.16255425259276127
29.131044000000003,7.384236642486276,0.16288596719214662
29.133432,7.371198428791511,0.1631974789775766
29.135816,7.354063465805295,0.16354676134481802
29.138212000000003,7.3328317535276275,0.16393763622469865
29.1406,7.315604242742793,0.16425808034840525
29.14298,7.300099293450657,0.16455857547883596
29.145380000000003,7.288179236770771,0.1648121925338789
29.147768,7.278960128971606,0.1649915070002573
29.150148,7.26550450225413,0.1652223205699437
29.152548000000003,7.252607954044094,0.16542220173351654
29.154936,7.241853276207333,0.16557867526699976
29.157316,7.234031864676769,0.16568278112932963
29.159716000000003,7.223556726093731,0.16582612323984797
29.162104,7.206842967845964,0.16606516099543278
29.164484,7.185845468851642,0.16640493086378874
29.166884000000003,7.170295193589133,0.16665934325792342
29.169272,7.15595562314012,0.1668820257444018
29.171652,7.139474182317831,0.16715361086267694
29.174052000000003,7.11684666962943,0.16755289051093664
29.17644,7.096361027314306,0.16790502416953265
29.17882,7.07322165794671,0.16829984984507287
29.181216,7.051572532646331,0.16864141176485367
29.183604000000003,7.027129910666617,0.16903340157887436
29.185988,7.006551720552877,0.16935321295765482
29.188384,6.987975631185554,0.16962925825350314
29.190776,6.970610246631729,0.16987191114941236
29.193156,6.952313696518126,0.17013262662271708
29.195556000000003,6.935460168643498,0.17038478033235568
29.197940000000003,6.920841058940765,0.17062478148818236
29.200324,6.905662870730591,0.1708981597623757
29.20272,6.893929805505811,0.17112300961767338
29.205108000000003,6.879915100280893,0.17140571796025955
29.207492,6.871487388414646,0.17159256772859652
29.209888,6.876235764012154,0.17154562473276536
29.212276000000003,6.8922053481552465,0.17126487447034977
29.214656,6.905521205245863,0.17102442977464064
29.217056,6.916275883082623,0.1708557316297696
29.219444000000003,6.928892892038938,0.17065400736262512
29.221824,6.9447227065551695,0.1703773726894627
29.224224,6.965487888124014,0.17000942846389866
29.226612000000003,6.992259371932107,0.16952279718846816
29.228996,7.014747114993647,0.16913412541294026
29.231392,7.044172325854216,0.16861319420509055
29.233780000000003,7.074388932647702,0.16809091381163
29.236164,7.101392733881274,0.1676428187259888
29.23856,7.127977226234265,0.16722144475355866
29.240948000000003,7.160148711945926,0.16671029985615435
29.243332,7.191900888777006,0.16622526432690626
29.245728,7.227517497474058,0.16567354223039946
29.248116000000003,7.262994336544252,0.1651263647043962
29.2505,7.296049765987448,0.16464342867904203
29.252896,7.334040562483255,0.16406977701702707
29.255288,7.370680884538704,0.16353903637364586
29.257668,7.400243969168264,0.16315336725357885
29.260068,7.425243773797549,0.16288111991565052
29.262456,7.4530370751061685,0.16256635862612048
29.26484,7.485393656415064,0.1621468108867027
29.267236,7.521102812910734,0.16165947574649206
29.269628,7.560676401272378,0.1611161960695174
29.272008,7.593172752208133,0.16070672175482653
29.274404,7.6255293335170276,0.16031372452742035
29.276792,7.660307324452919,0.1598629252970682
29.279176,7.692152049082616,0.159468308869474
29.281576,7.719340945913422,0.1591410875397437
29.283964,7.748020086811446,0.15877212390035184
29.286344,7.776838997336331,0.15839741328244603
29.288744,7.80407511599538,0.15804079905360058
29.291132,7.829728442788592,0.15769539294765772
29.293512,7.857523639955081,0.15731723548483179
29.295912,7.889974664920462,0.15687707120342492
29.298304,7.924055703579924,0.1563892823517703
29.300684,7.95534324556005,0.15594371250583533
29.303084,7.987189866047616,0.15547202394147577
29.305472,8.02117835690846,0.15496246888802676
29.307856,8.053584055903466,0.15446550443869336
29.310256000000003,8.087060690085112,0.15395493913760927
29.312644,8.120257785013038,0.15346334342102144
29.315028,8.153175340687243,0.15299456887340188
29.317424000000003,8.17822426300264,0.15264361936126394
29.319812,8.205042968638978,0.15223905552119343
29.322192,8.227205846476423,0.15189654667592667
29.324588,8.24857732838095,0.15156054632748625
29.326976,8.265432752113446,0.15127656517617047
29.32936,8.286571916592496,0.15091859104051067
29.331756,8.307571311444686,0.15056947427577222
29.334148,8.329641641483514,0.15020429196507176
29.336528,8.350641036335704,0.1498602163678967
29.338928000000003,8.377786503054004,0.14942469384046247
29.341316,8.395201005293941,0.14912342598247721
29.343696,8.407168283802068,0.1488846244648992
29.346096000000003,8.420206497496835,0.14862998144838085
29.348484,8.436038207870935,0.14834357985927002
29.350868,8.45466341492437,0.14802751234642075
29.353264000000003,8.47049512529847,0.14774491200874373
29.355652,8.489539641232486,0.14741244984768134
29.358032,8.506582056420088,0.14711051833314204
29.360432000000003,8.523764241234545,0.14680455959649358
29.36282,8.53363687119764,0.1465775537960674
29.3652,8.54672230672065,0.14629801204566178
29.367600000000003,8.560319598922856,0.14602781450881172
29.369988,8.576850157431258,0.1457199364764547
29.372368,8.595103277432356,0.14539884227582034
29.374768000000003,8.619083160418983,0.1450086405387849
29.377156,8.642923273778752,0.14462876651098325
29.37954,8.663830120832325,0.14428604405016293
29.381936000000003,8.68287463676634,0.14396571677596384
29.384324,8.701127756767438,0.14365058747149997
29.386708,8.712303639342647,0.14343425544489635
29.389104000000003,8.731348155276663,0.1431165749183268
29.391492,8.755607577517013,0.1427242505890272
29.393876,8.778376755690143,0.14236943148031067
29.396276,8.79742127162416,0.14205658692308365
29.398664000000004,8.811530420505564,0.14180793759808538
29.401044,8.827921209387105,0.14152137425541086
29.403444,8.841238962335593,0.14127869211088825
29.405828,8.85390508897802,0.14103429592713088
29.408212,8.86685075487417,0.14077986511793616
29.410612,8.88245014782279,0.14050020795649484
29.413,8.90219351189111,0.14016626011416564
29.415384000000003,8.92035408409359,0.13983991938143867
29.41778,8.93399859812404,0.13955581926366914
29.420172,8.946851716221571,0.13927701237296164
29.422552000000003,8.957982272826406,0.1390134852490644
29.424952,8.967110728684826,0.13877582568166646
29.42734,8.982385256409355,0.13845953474517897
29.429724,8.996868388200966,0.13814658958722578
29.43212,9.012282685552357,0.13782541788798275
29.434512,9.029838853277024,0.1374730861070056
29.4369,9.041808027643018,0.13717704222520333
29.439296,9.048981604583263,0.1369341530079885
29.441688,9.056993799284669,0.13665692427898662
29.444068,9.06807902991913,0.13634147343959205
29.446468000000003,9.082516835740366,0.13597641225248674
29.448856,9.096163245628684,0.13561603183979062
29.451244000000003,9.109158029210946,0.1352529904832238
29.45364,9.12122164723343,0.1348989441186609
29.456032,9.12928106376308,0.1345927079011542
29.45842,9.140693055479506,0.13423741769483624
29.460816,9.14544711865062,0.13395079186180575
29.463208,9.152343052195013,0.13363555688853312
29.465596,9.166176453538437,0.13324330351310934
29.467992,9.179358228575802,0.13284957843094342
29.470384000000003,9.188675571747192,0.1324957452390748
29.472772,9.196270353425886,0.1321528461892191
29.475172,9.19906953767883,0.1318602409266288
29.47756,9.204941757864827,0.1315315200005825
29.479944000000003,9.210953747677683,0.13119831069267857
29.48234,9.216034571930763,0.13087344318056715
29.484728,9.225910993609595,0.13050108422993614
29.487116,9.236578811221344,0.13012522959946124
29.489512,9.240821017713262,0.12983281369588454
29.4919,9.241990188272126,0.12957754604319946
29.494284,9.235011186218463,0.12941731207752522
29.49668,9.22654194009758,0.12928822536256243
29.499068,9.217001758790058,0.12917297298021496
29.501456,9.208532512669175,0.1290433367546585
29.503852,9.202344906548428,0.1288793861026884
29.50624,9.192013329307988,0.12876603494918992
29.508636000000003,9.183124774306524,0.1286529171850903
29.511036,9.171954579304922,0.12857361385245744
29.513424,9.155569477996988,0.1285582018548461
29.515824,9.137833902248694,0.12856784929152226
29.518216,9.122752053552878,0.12855851754688696
29.520604,9.1087411400437,0.12853504200908225
29.523008,9.09417114802708,0.12853464178366292
29.525404,9.075596954517625,0.1285783439886054
29.527792,9.05595182582153,0.12863518559872414
29.530196000000004,9.034304596379023,0.12871490933677524
29.5326,9.012657366936512,0.12879263209467995
29.534984,8.99380363417334,0.12884509888186338
29.537384000000003,8.981095973276275,0.12882621337528125
29.539784,8.968388312379211,0.12880736369352364
29.542172,8.965691155214232,0.12867766401401476
29.544576,8.963273537302973,0.12853623849514353
29.546968,8.961367776070913,0.1284035066294825
29.549364,8.959042705958268,0.12828811368159157
29.55176,8.955087622151549,0.12820974202668606
29.554148,8.953926035024162,0.1281065579180708
29.556544,8.954766548643194,0.127981126813748
29.55894,8.958260789314696,0.12783697359046942
29.561332,8.958681994053146,0.12772842299639353
29.563728,8.961896695470932,0.12759521711608282
29.566124,8.96711349763513,0.12744026673971098
29.568512,8.975635653157866,0.1272705143432808
29.570908000000003,8.98522874386724,0.12708647991393796
29.573304,8.998266957562004,0.1268814453856922
29.575692000000004,9.00981492718955,0.12670733750346777
29.578072,9.027881055735547,0.12647657610633903
29.580468000000003,9.03966134278857,0.12632313971028988
29.582856,9.051301860214734,0.12617678831354237
29.585236,9.063454234320096,0.12604058037742438
29.587632,9.075606608425458,0.12590407233701634
29.590020000000003,9.083615011411126,0.1258178422236213
29.592416,9.095068537382186,0.12571179800452073
29.594812,9.108803703353384,0.12557307638585122
29.5972,9.12374957413808,0.12541566170502838
29.599580000000003,9.142048020109552,0.1252126961394839
29.601976,9.1624883364543,0.12498503187529152
29.604364,9.184279127239407,0.12473494984722788
29.606744,9.204626895785541,0.12448478841188214
29.609144,9.233914232877119,0.12414479001862208
29.611532,9.260408073289362,0.12382854128532886
29.613912,9.284899812955187,0.12353453149121896
29.616312,9.305946429635618,0.1232607471725159
29.6187,9.330345621502829,0.12294481388580451
29.62108,9.354232956690838,0.12262192912228892
29.623476000000004,9.376817039266736,0.12228986706090825
29.625868,9.396887164417016,0.12197205404658625
29.628248,9.425245231806686,0.12156361082368403
29.630644,9.451880737703657,0.12116615001293295
29.633032,9.478004386921432,0.12076208427240287
29.635416,9.506269906512484,0.12033374402001477
29.637812,9.535746130917033,0.11988904220720444
29.6402,9.56205677158991,0.1194533988663318
29.64258,9.591719987449565,0.11898038862628699
29.644976,9.62073157700316,0.1185057455790855
29.647364000000003,9.648812000996976,0.11804129885330483
29.649748,9.674238697938318,0.11759530305836922
29.652144,9.695521423759965,0.11719285434754671
29.654532000000003,9.719877185514669,0.11676311370472692
29.656916,9.735992226858228,0.11638914238665646
29.659312,9.752526577082367,0.11599935483458629
29.661700000000003,9.769480236187087,0.11559472946610948
29.664096,9.786713434545529,0.11517961422516876
29.666496,9.798359639545302,0.11480448352743178
29.668884,9.809354218239013,0.11442679617907253
29.671264,9.827565803985475,0.11398047811125757
29.673664,9.84512576342588,0.11353201455587017
29.676052,9.856027794320974,0.11313388127536034
29.678432,9.865207263723374,0.11274274767721157
29.680828,9.872664171633076,0.11235959329698095
29.683216,9.877467352490303,0.11199002639591053
29.685596,9.87668353998886,0.1116563292413395
29.687996,9.875759957860557,0.11132741963881147
29.690384,9.864546332746452,0.11109518112359267
29.692764,9.852261772445708,0.11087381976601539
29.69516,9.836392319532711,0.11067117636570487
29.697548,9.817729369940379,0.11048602440025963
29.699932,9.800277125161545,0.11028406609203781
29.702328,9.771743441463988,0.11017964787799427
29.704716,9.747725815938463,0.11004909348239368
29.7071,9.722357715972576,0.10993969778185633
29.709496,9.694707976006555,0.10985756631348362
29.711884,9.66398520010748,0.10980391365511039
29.714264,9.633914050514461,0.10975429806915951
29.716664,9.596346354614973,0.109785715898772
29.719052,9.548209076475958,0.1099264904615308
29.721432,9.497370849456226,0.11011120791343737
29.723828,9.449326119115828,0.11027682758973581
29.726216,9.403143719894988,0.11042915632987743
29.7286,9.359475278099765,0.11057130821064749
29.730996,9.321254060036345,0.11067928976965567
29.733384,9.28834029607788,0.11076146788609173
29.735768,9.255146992865694,0.11085398384720324
29.738164,9.229170696706259,0.11087777610166753
29.740552,9.20384602685288,0.11090558044600976
29.742932000000003,9.178613904798118,0.11095975400935276
29.745332,9.155616200915249,0.11101663661632351
29.74772,9.133409892965297,0.11107215360582569
29.750100000000003,9.12293665024013,0.11103202059281934
29.7525,9.1099022282611,0.11103100239827926
29.754888,9.099661302961408,0.11101124216539747
29.757268000000003,9.09249341359477,0.11096197658166702
29.759664,9.091564143892858,0.11087985380077975
29.762052,9.092077896429926,0.11080120158584128
29.764436000000003,9.102462383072218,0.11063783707293727
29.766832,9.121926207886814,0.11038991909603257
29.76922,9.142880276768631,0.11011309816000293
29.771604000000004,9.165556907143147,0.10983076285363669
29.774,9.187814228637079,0.10956515099079554
29.776388,9.205136183078396,0.10934163865780609
29.778784,9.217522770467104,0.10916147663814492
29.781184000000003,9.23084052341559,0.10897615155833958
29.783572,9.244949672296993,0.10878984916218629
29.785956,9.258639512297817,0.10862065843573109
29.788352000000003,9.269396085992447,0.10847454160082541
29.79074,9.28564710524713,0.10826620943342954
29.793124,9.306181865248362,0.10801422391831987
29.795524,9.327647790809378,0.1077572362946782
29.797912,9.345249284504417,0.10753159720375181
29.800296000000003,9.365831266333897,0.1072525998713318
29.802692,9.387623952976874,0.1069591265102306
29.80508,9.41034780517963,0.10666213619915717
29.807464000000003,9.433630735889826,0.10634772068879984
29.80986,9.462687651413795,0.105967503299096
29.812248,9.491092940631706,0.10558656455658119
29.814632000000003,9.517635898730063,0.10521985123535715
29.817028,9.545901418321115,0.10484833487909254
29.81942,9.57216483716575,0.1044942359447969
29.821800000000003,9.600849665637382,0.10411111080746226
29.8242,9.634609630788487,0.10368635193928195
29.826588,9.666367495193173,0.10327522378057005
29.828968000000003,9.697753272545524,0.10285236964735955
29.831368,9.729977667659035,0.10240078058389368
29.83376,9.763552537212906,0.10193197973804485
29.83614,9.800479981953552,0.10142656165367483
29.838536,9.835405325947782,0.10094095808403492
29.840924,9.862182497329481,0.10052190423432926
29.843304000000003,9.887237107218487,0.10010905468373538
29.8457,9.913362652294133,0.09968766414063877
29.848088,9.939720514795253,0.09928879964359796
29.850472000000003,9.963424650243901,0.09890167379144538
29.852868,9.984195519386352,0.09853547287848269
29.855256,10.00003102147619,0.09820464732694704
29.857636,10.005576480580224,0.09795678570241748
29.860032,10.007257507818286,0.09773327201118222
29.862424,10.010009470242986,0.09750116369383384
29.864804,10.014251676734904,0.09724628834108044
29.8672,10.017982026547628,0.09698166853678768
