Time,Force,Position
28.185820000000003,0.005402154539609642,0.0
28.188216,0.0033301047852192264,0.0
28.190604,0.0017699117100265004,0.0
28.192988000000003,0.00020971863483377457,0.0
28.195384,0.0,0.0
28.197772,0.0,0.0
28.200156000000003,0.0,0.0
28.202552,0.0,0.0
28.20494,0.0,0.0
28.207324,0.0,0.0
28.209728,0.0,0.0
28.212112,0.0,0.0
28.214492,0.0,0.0
28.216896,0.0,0.0
28.219284,0.0,0.0
28.221664,0.0,0.0
28.22406,0.0,0.0
28.226448,0.00034948826169398475,0.0
28.228828,0.0008387461502481796,0.0
28.231224,0.0008387461502481796,0.0
28.233612,0.0013280040388023745,0.0
28.235992,0.0013280040388023745,0.0
28.238396,0.005169837114132371,0.0
28.240784,0.01301587168229607,0.0
28.243164,0.019790971063821237,0.0
28.24556,0.026845609699066825,0.0
28.247948,0.03511095314781115,0.0
28.250328,0.043516066223415695,0.0
28.252724,0.05592538079185394,0.0
28.255112,0.0692658609200705,0.0
28.257492000000003,0.08246657142142685,0.0
28.259888,0.09846077860211817,0.0
28.262276,0.11538615134258781,0.0
28.264656,0.1280277833365033,0.0
28.26706,0.1363856745838647,0.0
28.269448,0.1455349617641442,0.0
28.271828000000003,0.1548240185712839,0.0
28.274224,0.16376358711672961,0.0
28.276612,0.17228384678159472,0.0
28.278992,0.18837060176090306,0.0
28.281388000000003,0.2030369332918789,0.0
28.283776,0.21712158752477045,0.0
28.286156,0.22242904162971994,0.0
28.288552,0.22051948868192014,0.0
28.290940000000003,0.22261413722695406,0.0
28.29332,0.22428947689140732,0.0
28.295716,0.22368317655572337,0.0
28.298104,0.22186617140654064,0.0
28.300504,0.2191180006975796,0.0
28.3029,0.21837193073503544,0.0
28.305284,0.21883656558599,0.0
28.307664,0.21785817819796852,0.0
28.310064,0.21701956043680726,0.0
28.312448,0.22074422267592053,0.0
28.314828,0.2307547264080048,0.0
28.317224,0.23997383420717094,0.0
28.319612000000003,0.24998433793925517,0.0
28.321996,0.2621367120446165,0.0
28.324388000000003,0.27671049577697526,0.0
28.326776,0.28006307096375105,0.0
28.329176,0.284207042083445,0.0
28.331572,0.2884907828299992,0.0
28.333956,0.30129478324141834,0.0
28.33634,0.31638042365297486,0.0
28.338736,0.32760163219855787,0.0
28.341124,0.3360293440648059,0.0
28.343504,0.3424549551846371,0.0
28.3459,0.3488805663044683,0.0
28.348288,0.34822893999841037,0.0
28.350668,0.3417107810799621,0.0
28.353068,0.3362635573481524,0.0
28.355452000000003,0.3271842191758464,0.0
28.357836,0.3159630106302634,0.0
28.360232,0.30432249320409976,0.0
28.362620000000003,0.289748709471741,0.0
28.365,0.27503515611252194,0.0
28.3674,0.2593904371935246,0.0
28.369784,0.23794900628102364,0.0
28.372184,0.21436570499524554,0.0
28.37458,0.1949263748291614,0.0
28.376968,0.17676769848454954,0.0
28.379348,0.16233368437905096,0.0
28.381748,0.14352338172838117,0.0
28.384136,0.12885705019740532,0.0
28.386516,0.11512188422620775,0.0
28.38892,0.10818441642717888,0.0
28.391308,0.10632208530762224,0.0
28.393692,0.10567045900156431,0.0
28.396088,0.10688116381506305,0.0
28.398476,0.11395840124095212,0.0
28.400856,0.11782283310692561,0.0
28.403252,0.12303773941325806,0.0
28.40564,0.12932358090622906,0.0
28.408024,0.1338868609065036,0.0
28.41042,0.14124363758611308,0.0
28.412808,0.14981111907922134,0.0
28.415192,0.16145163650538497,0.0
28.417588,0.1804716577908885,0.0
28.419976,0.2014937798228089,0.0
28.422356,0.22158473629495096,0.0
28.424752,0.23839293819920387,0.0
28.42714,0.25054531230456517,0.0
28.42952,0.2634890823428446,0.0
28.431916,0.27121794607479166,0.0
28.434304,0.2781554138738205,0.0
28.436688,0.2802972842470975,0.0
28.439092,0.2805768235008179,0.0
28.44148,0.2825789242472348,0.0
28.443864,0.2897959312999841,0.0
28.44626,0.291146405740343,0.0
28.448648,0.2906345490611454,0.0
28.451032,0.29133339719544643,0.0
28.453428,0.2920322453297475,0.0
28.455816,0.29473319421046534,0.0
28.458196,0.2947804160387086,0.0
28.460592,0.2906836667472579,0.0
28.46298,0.2785785144701397,0.0
28.46536,0.2607465992074914,0.0
28.467764,0.2409125831984262,0.0
28.470152,0.22280112868205745,0.0
28.472532,0.20683154453896577,0.0
28.474932,0.19179312595565243,0.0
28.47732,0.17782564255897762,0.0
28.4797,0.16572049028185945,0.0
28.4821,0.15242723198188604,0.0
28.484488,0.14006513924169095,0.0
28.486868,0.1275632768746357,0.0
28.489268,0.11319908338802377,0.0
28.491652,0.09576185396835644,0.0
28.494036,0.08125789085488429,0.0
28.496432,0.07008390413754445,0.0
28.49882,0.06142387484581915,0.0
28.5012,0.051972449621175726,0.0
28.503596,0.044243585889228734,0.0
28.505984,0.03809751402311797,0.0
28.508368,0.03823728364997818,0.0
28.510768,0.044243585889228734,0.0
28.513156,0.053043384807814245,0.0
28.51554,0.06035293965918059,0.0
28.517936,0.06631202007018801,0.0
28.520324,0.07143248272003415,0.0
28.522708,0.08358296096752622,0.0
28.525104,0.09326480775977768,0.0
28.527492,0.10648432533603903,0.0
28.529876,0.12866613863747653,0.0
28.532272000000003,0.15475770977526146,0.0
28.53466,0.1827569380029769,0.0
28.53704,0.21745942074637473,0.0
28.539444,0.25658351800531765,0.0
28.541832000000003,0.2981271290333887,0.00737076475754065
28.544212,0.34262470930042926,0.015098815579411774
28.546608000000003,0.3892622640828777,0.02303748053720076
28.548996,0.4433472474856834,0.031010760768787685
28.551376,0.5047398898819861,0.03885909267782324
28.553772,0.5662231842190368,0.04746457067560271
28.556164,0.6321261972137633,0.056313087754477645
28.558544,0.7061263692770356,0.06549342144679607
28.560944000000003,0.789619500819587,0.07508639726471329
28.563332,0.8993665719174267,0.08414052723348074
28.565712,1.0353675825705555,0.09280164663631002
28.568108,1.1973902153534952,0.10117068635671202
28.570496,1.3734218657877453,0.10951009764354333
28.572876,1.5760342168592476,0.11765691050009625
28.575272,1.802294002261807,0.1256084453649673
28.57766,2.0473130767710543,0.13339977059276678
28.580044,2.3115107492675704,0.14110009821209193
28.58244,2.5971686597514925,0.14870514792308742
28.584828,2.894695613371317,0.15630826042545534
28.587208,3.2126590916201523,0.16378942744673883
28.589608,3.5466828059528273,0.1638728421149413
28.591992,3.8986763093171417,0.16350245191745785
28.594392000000003,4.259607485369032,0.1629231430815634
28.596788,4.63096657817572,0.16225920428263083
28.599176,5.005583802512695,0.16172548816344767
28.601560000000003,5.396030841365904,0.1603755860703991
28.603956,5.794393735406164,0.15871796917370343
28.606344,6.197741114185147,0.15664510877208795
28.608728000000003,6.605051160202331,0.15401746509582445
28.611124,6.988296358865745,0.15190192448724543
28.613512,7.3434725086825585,0.15018870782292282
28.615896000000003,7.672814027824663,0.14876531800910428
28.618292,7.9846088585314465,0.14732791288923275
28.62068,8.271267906697824,0.14605412867012035
28.623064000000003,8.527483718218843,0.1449692138716326
28.62546,8.75241767533335,0.14406573805155917
28.627848,8.95379864177328,0.1432159326226865
28.630228,9.127203107165228,0.14247416022642928
28.632628,9.276355733748304,0.1417615324578055
28.635012,9.392968579283117,0.14122212704232054
28.637396,9.486865156046655,0.14073765147886644
28.639792,9.555716602210536,0.14038625566128982
28.64218,9.611628070051871,0.1400239693964729
28.64456,9.647382552517918,0.13975100070327492
28.646956,9.669777747780843,0.13948209277689108
28.649344000000003,9.679884591027282,0.13920633083806325
28.651724,9.672068867070324,0.1390054580285329
28.654124,9.648937081134203,0.13888328411160514
28.656508,9.607973379935435,0.13893456943649907
28.658892,9.56486780836339,0.13901376044500532
28.661288000000003,9.524835272724399,0.13905434515234885
28.663676,9.488015542645325,0.13904957823065842
28.666056,9.446912071819698,0.1391010255095919
28.668452,9.401245320993793,0.1392221362041409
28.67084,9.357905536138398,0.13936498776017645
28.67322,9.321036688373212,0.13947717813277427
28.675616,9.283421770645479,0.1396479693669549
28.678004,9.249064984448037,0.13983334169684922
28.680384,9.223321005714077,0.1399570816384728
28.682784,9.203256568137403,0.14005442352493094
28.685172,9.189430750225458,0.14009894433800965
28.687552,9.17639632824643,0.14014132917583116
28.689952,9.16056840958807,0.14021211956730362
28.69234,9.149675857982318,0.14022439647247986
28.694724,9.142368198988823,0.14020472411277082
28.69712,9.13086934704739,0.1402710168111708
28.699508,9.122256539583905,0.14033532341743052
28.701892,9.11946304290457,0.14036314352925888
28.704288,9.124910266636379,0.14031346428552421
28.706676,9.131520973353446,0.14027415977435378
28.709056,9.135430731189794,0.14028836962064753
28.711456,9.134265352346668,0.1403664455327084
28.71384,9.134310678317043,0.14042376258092198
28.716224,9.140222536899806,0.1404135987543827
28.71862,9.14669347399001,0.1403798902775263
28.721012,9.148648352908184,0.1403870355024929
28.723392,9.150231144774022,0.1403799467532275
28.725788,9.153443950333937,0.14033372543884595
28.72818,9.150790223281463,0.14035625643279742
28.73056,9.156005129587795,0.14028569281602932
28.732956,9.162802827759965,0.1402089964981586
28.735344,9.175047749663943,0.1400821223347641
28.737728,9.190737794553314,0.13992945205394783
28.740124,9.205356904256048,0.1397927163487852
28.742512,9.220255553212501,0.1396460929004079
28.744896,9.233990719183698,0.13948828953074235
28.747292,9.250147294781893,0.13929004140009982
28.74968,9.261787812208057,0.13913300776276233
28.75206,9.269983206648828,0.13900212217580885
28.75446,9.279808614783677,0.13883416288482278
28.756848,9.296851029971277,0.13857701586668097
28.759232,9.320132064823603,0.13827013409860806
28.761628,9.346066826728405,0.1379440116450163
28.764016,9.373584380499043,0.1376147812311367
28.7664,9.402824495762378,0.13727490502294548
28.768796,9.439513935503939,0.13686631129361312
28.771184,9.479648498230894,0.13643489888988464
28.773568,9.522297018383464,0.1359918353516169
28.775964,9.57188300633506,0.13547315572194724
28.778352,9.61387990018157,0.1350327810161122
28.780736,9.653642375856185,0.1346001018286698
28.783132,9.691310202985768,0.1341675500055853
28.78552,9.73074781343629,0.13369831733563478
28.7879,9.77181543758089,0.13319699983703992
28.7903,9.807296068366822,0.13274519762911535
28.792688,9.844406712846833,0.1322587646371924
28.795072,9.877141068781674,0.13180384801812636
28.797468,9.90764100654462,0.13135046120316055
28.799856,9.931203476508538,0.13096736096872802
28.80224,9.953834780912677,0.13059405277306102
28.804636,9.96738674714451,0.13032147542558697
28.807024,9.97255822333834,0.13012117448854998
28.809408,9.973725498039334,0.12996403165846698
28.811804,9.972099276060993,0.12983141204820187
28.814192,9.969541888522874,0.1297069003885349
28.816576,9.963539377999359,0.12960358218174192
28.818972,9.957164780423508,0.12948686145391375
28.821364,9.948555764675765,0.12937226006657404
28.823744,9.933288820382714,0.12931679051047382
28.82614,9.920163746462938,0.12923516543278188
28.828528,9.905316111050466,0.12916317189803653
28.830912,9.890468475637995,0.12909076461418054
28.833308,9.87268757391933,0.12904561198213235
28.835696,9.851833636267608,0.12903278565267742
28.83808,9.835263439362441,0.1289687265680539
28.840476,9.819484638390191,0.12890170050167526
28.842864,9.806639103724137,0.1288068428313207
28.845248,9.796307526483696,0.12869993549253178
28.847644,9.794263891482643,0.1285019613110934
28.850032,9.787145119802119,0.12835635360532838
28.852412,9.782307988121731,0.12817922670411663
28.854808,9.785758798680732,0.12790963799120275
28.857196,9.79177078849359,0.12759814633963143
28.85958,9.798202087187027,0.127271148639618
28.86198,9.804912925134188,0.1269340626210199
28.864368,9.812415159014265,0.1265955990064141
28.866752,9.815773421774649,0.12630241177307686
28.869148,9.819131684535032,0.12600970200340844
28.871536000000003,9.828496249534666,0.1256573483944043
28.873916,9.839443606400136,0.12530205846440284
28.876316,9.848900719198388,0.12497429730365522
28.8787,9.860220163116196,0.12463334260297346
28.881084,9.870468671847368,0.12430500660786636
28.883484,9.880717180578538,0.12397630328087342
28.885872000000003,9.88761311412293,0.12369044656857063
28.888252,9.891016702853687,0.12345234441353634
28.890648,9.895071917890501,0.12321857139311657
28.893036,9.898195967367537,0.12299190110376608
28.89542,9.898107211284659,0.12280261815711388
28.897816,9.906166627814308,0.12253050804814422
28.900204,9.919021641769708,0.12221873304434383
28.902588,9.925311274978418,0.1219858087681351
28.904984,9.928108563373492,0.12179940192918212
28.907372,9.927693046208649,0.12164927604145981
28.909756,9.925647515349727,0.12153207743530747
28.912152000000003,9.919877322251692,0.12144279674010536
28.91454,9.91797156101963,0.12132004234488053
28.91692,9.91471532534721,0.12121986571709259
28.919316,9.904661391502621,0.12117895774675623
28.921708,9.895306305792335,0.12111172532847983
28.924088,9.885951220082049,0.1210445017432792
28.926488000000003,9.874594033625343,0.12099604367280099
28.928872,9.864168012728417,0.12094052331067369
28.931256,9.855464553324186,0.12087630159375783
28.933652,9.851696460972567,0.12076745883916436
28.93604,9.853143274927282,0.12060404103927375
28.938424,9.847792390709827,0.12049835952389062
28.94082,9.84430383761193,0.12037900682410028
28.943212,9.84174645007381,0.12025276101204183
28.945592,9.837559048841612,0.12015937473020469
28.947992000000003,9.829646985370301,0.12009264589841676
28.950376,9.826810058578463,0.11997727832265942
28.95276,9.828768729212374,0.11982340282557223
28.955156,9.837525098018453,0.11961320820438916
28.957548,9.849634042011312,0.11936321490008898
28.959928,9.865327878616421,0.11909151420582598
28.962328000000003,9.879950780034893,0.11883220933239964
28.964712,9.89643601257292,0.11855996937907737
28.967092,9.921301735148953,0.1182296399151629
28.969492,9.944537444030905,0.11793366925807965
28.97188,9.974850390338752,0.11757451590886599
28.97426,10.004092401459953,0.1172268984236591
28.976656,10.035336513327573,0.116863507582864
28.979044,10.065789229262277,0.11650260023061408
28.981424,10.091027038890648,0.11619419278466211
28.983824,10.111469251093267,0.1159233976906272
28.986212,10.138709161468054,0.11559768399448488
28.988592,10.164878136656203,0.11528423999204487
28.990988,10.191838507777268,0.11497050127331274
28.993376,10.218566561472855,0.11464039081446657
28.99576,10.245154845541586,0.1143151908800514
28.998156,10.27016033774448,0.11399431213889989
29.00054,10.29665607401459,0.11365096049062044
29.002924,10.315283176925893,0.1133709571779034
29.00532,10.332187718344501,0.11309959046502062
29.007708,10.347369698270413,0.11283556776598515
29.010092,10.362691447823181,0.112566996959316
29.012488,10.376290635883256,0.1123056892050017
29.014876,10.382440499465105,0.11209226016388328
29.017256,10.38244429118084,0.1119327301597387
29.019656,10.374439679910912,0.11183990390197882
29.022044,10.369508104574038,0.11171982932094845
29.024428,10.358709996624773,0.1116442549920775
29.026824,10.349122593489009,0.111552975487793
29.029212,10.344098470353517,0.11140948528443284
29.031588000000003,10.339074347218025,0.11126557107058836
29.033984,10.331396497030061,0.11113415904066873
29.036372,10.324137955722673,0.11098816112217184
29.038752,10.314505226616534,0.11084464347223762
29.041148000000003,10.303382253443175,0.11072598809994712
29.043536,10.29612371213579,0.11057994826657562
29.045916,10.287514696388046,0.11045375288475548
29.048312,10.275692875080386,0.11035855597636034
29.050700000000003,10.267083859332642,0.11023199709249541
29.053084,10.257264138771397,0.11012037891332013
29.05548,10.250657223770071,0.10997771931475729
29.057868000000003,10.243398682462686,0.10983083803887803
29.060252,10.241355047461635,0.10963800837420837
29.062648,10.246388649886471,0.10938889950507599
29.065036000000003,10.258406941938583,0.10905910795827659
29.06742,10.274988513990966,0.10867909163014908
29.069816,10.288636819737155,0.10832095954444156
29.072204000000003,10.308151658095733,0.10792082681281524
29.074588,10.324453690894394,0.10755123420579349
29.076988,10.336611752573363,0.10721795672239998
29.079376,10.351842850185388,0.10685958997847537
29.081756,10.36800511335719,0.10649626305380966
29.084152,10.384027606902132,0.1061385188143628
29.086540000000003,10.403774762686187,0.10576095878837216
29.088924,10.422078896231268,0.10537945198697489
29.091328,10.437869072350733,0.10500629081499756
29.093724,10.455009722910559,0.10461414176237181
29.096104,10.466563380111713,0.10425073632981552
29.0985,10.481050303619064,0.10386843384886699
29.100888,10.493814665633716,0.1034905596393939
29.103272,10.503505991715315,0.10313853037361012
29.105668,10.514919879289607,0.10278178430723894
29.108056,10.518325363878235,0.10248440513685875
29.11044,10.514653611040972,0.10224091159167001
29.112836,10.511493714882906,0.10200725401814499
29.115224,10.50712311391134,0.10178799192164173
29.117608,10.503032052193499,0.10155919796949124
29.120004,10.494145393049903,0.1013587277069652
29.122392,10.486609208346668,0.10113913133279873
29.124776,10.47921279327029,0.10091422728055321
29.127172,10.472887313380557,0.10068047560374027
29.12956,10.468563934237233,0.10043319041475388
29.13194,10.46731359102697,0.10016367541497558
29.134356,10.464852543003207,0.09990868911023082
29.136744,10.466116157218556,0.09963584682635374
29.139124,10.464958361806907,0.0993899377770238
29.141540000000003,10.463660796768398,0.09914875752029392
29.143928,10.469812556208115,0.09887100541978842
29.146308,10.47209988378186,0.09861603606294297
29.148704,10.478111873594719,0.09834310872861755
29.151092,10.48384432415386,0.09807899311156296
29.153476,10.48892514840694,0.09781093497899374
29.155872,10.496799469339356,0.09752857728085146
29.158256,10.508677991764603,0.09721936539712067
29.16064,10.515621147137242,0.09694139874337064
29.163036,10.522284763256156,0.09667292294504336
29.165424,10.53081071049463,0.09639633062939462
29.167804,10.54627412553213,0.09607700825529647
29.1702,10.56266870612941,0.09575395730304859
29.172588,10.580925617846248,0.09542239801979847
29.174972,10.596900889562948,0.09511432214403034
29.177368,10.60994289497345,0.09482429210249772
29.179756,10.616187202211787,0.09457252544394301
29.182136,10.619917552024505,0.09432420929188087
29.184536,10.618712534784615,0.09410529811799398
29.18692,10.618857991985083,0.09386840951572988
29.189304,10.617280887692855,0.09363495893878077
29.1917,10.615611235602012,0.09337957939926034
29.194088,10.618876950563779,0.09309597961446192
29.196468,10.621491039219485,0.0928080923491857
29.198868,10.623733040822856,0.0925058590762218
29.201252,10.625835272799367,0.09220849659772191
29.203632,10.629427748843097,0.0918897171204596
29.206032,10.631809520073329,0.09158419898685803
29.20842,10.636053622423118,0.09127014822719365
29.210800000000003,10.638714932907067,0.09095461658745921
29.213196,10.639513912271463,0.09064703503375157
29.215584000000003,10.634446359023471,0.09037143341238828
29.217964,10.627376705029056,0.09010728216025703
29.220364,10.622588691034784,0.08982316314347255
29.222752,10.615146949988032,0.08954497132862231
29.225136000000003,10.610778244874338,0.08924749378888386
29.227532,10.6082718708802,0.08894143919472114
29.22992,10.606417123192118,0.08863997513467718
29.232304000000003,10.607635411437094,0.08831831178355361
29.2347,10.611647196361407,0.08798663033243835
29.237088,10.61938364352483,0.08764131530696555
29.239468,10.622277271434259,0.08734505072695638
29.241868,10.621306467477716,0.08706795742202368
29.244256,10.621918455387009,0.086793479284984
29.246636,10.625975566281692,0.08651448726620237
29.249032000000003,10.629753137922659,0.08624447326207721
29.25142,10.635625358108657,0.08598719141974774
29.253804,10.63870408161532,0.08573932149435663
29.256200000000003,10.645135380308758,0.08546502369244818
29.258588,10.654360175681528,0.0851812465806396
29.260968,10.662374266240803,0.08490893212639751
29.263368,10.673321623106276,0.08462290722334806
29.265756,10.688133411837718,0.08432043538682171
29.268136,10.70173449575566,0.08403152995067643
29.270536,10.720270946726218,0.08371904767438648
29.272924,10.736665527323495,0.08342273113109061
29.275304,10.756505230906171,0.08312316485528137
