Time,Force,Position
31.167584,0.15382867493165375,0.0
31.169971999999994,0.14646551022240564,0.0
31.172355999999997,0.13962059022199383,0.0
31.174755999999995,0.1334272965276399,0.0
31.177147999999995,0.12257178700475578,0.0
31.179531999999995,0.11092488154895355,0.0
31.181928,0.09858551598848887,0.0
31.18432,0.08931918636107958,0.0
31.186699999999995,0.07953461202483397,0.0
31.1891,0.0714789872109234,0.0
31.191488,0.06183418250153799,0.0
31.193872,0.048185176299318906,0.0
31.196271999999997,0.037748975657015404,0.0
31.198663999999997,0.02731277501471191,0.0
31.201047999999997,0.01901844474568547,0.0
31.203447999999995,0.013145524103656518,0.0
31.205836,0.011276804954461265,0.0
31.20822,0.008476920245487692,0.0
31.21062,0.0066082010962924395,0.0
31.213012,0.004599712320236975,0.0
31.215396,0.003662158730820041,0.0
31.217792,0.003662158730820041,0.0
31.220175999999995,0.003004144395123529,0.0
31.222551999999997,0.0015547341265089065,0.0
31.224968,0.0015547341265089065,0.0
31.227352,0.0015547341265089065,0.0
31.229732,0.0011762590445328147,0.0
31.232124,0.0006580143356965124,0.0
31.234511999999995,0.0006580143356965124,0.0
31.236892,0.0,0.0
31.239304,0.0,0.0
31.241691999999997,0.0,0.0
31.244068,0.0,0.0
31.246483999999995,0.0,0.0
31.248872,0.0,0.0
31.251251999999997,0.0,0.0
31.253651999999995,0.0,0.0
31.25604,0.0,0.0
31.258416,0.0,0.0
31.260811999999994,0.0002859272833590328,0.0
31.2632,0.006717926432828829,0.0
31.265595999999995,0.013010155955438415,0.0
31.267992,0.02237542141110338,0.0
31.270376,0.026525780560435905,0.0
31.27276,0.027603103776713052,0.0
31.275152,0.027749261433211877,0.0
31.277539999999995,0.027749261433211873,0.0
31.27992,0.027755649462850487,0.0
31.282324,0.0277620374924891,0.0
31.284712,0.028699591081906034,0.0
31.287091999999998,0.03163924541773982,0.0
31.289496,0.033368194940074855,0.0
31.291884,0.03336819494007486,0.0
31.294264,0.0350971444624099,0.0
31.29666,0.04069052585071844,0.0
31.299043999999995,0.04628390723902697,0.0
31.301427999999994,0.048012856761362015,0.0
31.303824,0.04895041035077895,0.0
31.306208,0.04988796394019588,0.0
31.308603999999995,0.05039982061939357,0.0
31.310999999999996,0.04396782146992378,0.0
31.313388,0.03847337590987092,0.0
31.315768,0.02910811045420594,0.0
31.318164,0.028828571200485518,0.0
31.320547999999995,0.03269300306645901,0.0
31.322928,0.038279996425128936,0.0
31.325332,0.04629478744043495,0.0
31.32772,0.051369924119907186,0.0
31.330099999999995,0.05565366486646131,0.0
31.332503999999997,0.06007717523987564,0.0
31.334888,0.058494383374039415,0.0
31.337272,0.05933300113520067,0.0
31.339668,0.061900568418696976,0.0
31.342056,0.061528481366359494,0.0
31.344435999999995,0.055935099978050955,0.0
31.346839999999997,0.05034171858974242,0.0
31.349228,0.04861276906740738,0.0
31.351608,0.047675215477990446,0.0
31.354004,0.04673766188857351,0.0
31.356392,0.045939877926016795,0.0
31.358771999999995,0.045939877926016795,0.0
31.361172,0.04514209396346008,0.0
31.363556,0.04514209396346008,0.0
31.365939999999995,0.04127127406784798,0.0
31.368336,0.036329518985597345,0.0
31.370724,0.03059636797042859,0.0
31.373104,0.022581576955122584,0.0
31.375504,0.017500052246011737,0.0
31.377892,0.013209923469819003,0.0
31.380272,0.007848859506987736,0.0
31.382676,0.006491997036990173,0.0
31.385063999999996,0.003924429753493868,0.0
31.387443999999995,0.0027137249399951267,0.0
31.38984,0.005926530499910719,0.0
31.392224,0.011706903343322615,0.0
31.394603999999998,0.01948937693315136,0.0
31.397008,0.02820301608275843,0.0
31.399396,0.03705642485922571,0.0
31.401779999999995,0.0467012295686111,0.0
31.404183999999997,0.05941907021105186,0.0
31.406572,0.07241645010721307,0.0
31.408952,0.08769547000351151,0.0
31.411348,0.10283472027294976,0.0
31.413735999999997,0.11797397054238802,0.0
31.41612,0.12803808413235404,0.0
31.418516,0.13316683066970805,0.0
31.420903999999997,0.13550208052772705,0.0
31.423283999999995,0.14077059669194128,0.0
31.425679999999996,0.14575957360243505,0.0
31.428068,0.15088832013978906,0.0
31.430448,0.15694823223692136,0.0
31.432844,0.15900394284121996,0.0
31.435232,0.15970279097552104,0.0
31.437611999999994,0.15597812873640776,0.0
31.440012,0.1501977558929959,0.0
31.442395999999995,0.1424152823031672,0.0
31.444792,0.13747991525055514,0.0
31.447191999999998,0.13426710969063954,0.0
31.44958,0.1291919730111673,0.0
31.45196,0.11983309558514095,0.0
31.454359999999998,0.11005490927853395,0.0
31.456748,0.09771554371806927,0.0
31.459128,0.08830944446379976,0.0
31.461524,0.0810452155828073,0.0
31.463911999999997,0.0831398641278412,0.0
31.466292,0.09203221084504376,0.0
31.468687999999997,0.1035782846147211,0.0
31.471076,0.11125992651842494,0.0
31.473456,0.12108343879540583,0.0
31.47586,0.13262951256508315,0.0
31.478247999999997,0.14017138484192676,0.0
31.480628,0.15157768898474389,0.0
31.483031999999994,0.16098189238114416,0.0
31.48542,0.1695946998446263,0.0
31.487799999999996,0.1829169449648818,0.0
31.490204,0.19423708933872047,0.0
31.492591999999995,0.19591242900317374,0.0
31.494975999999998,0.19372333680165355,0.0
31.497372,0.18915366877174036,0.0
31.499759999999995,0.18579470555532596,0.0
31.50214,0.18257551196577176,0.0
31.504535999999995,0.179635857629938,0.0
31.506924,0.17390270661476925,0.0
31.509303999999997,0.16602768522632344,0.0
31.5117,0.1538689230913235,0.0
31.514087999999997,0.14045672648635105,0.0
31.516471999999997,0.12871986954583187,0.0
31.518868,0.11889066969524327,0.0
31.521255999999997,0.10803586062839003,0.0
31.523639999999997,0.10267360126372042,0.0
31.526036,0.1086232023853816,0.0
31.528423999999998,0.1267686077249088,0.0
31.530807999999997,0.16101957511864934,0.009879461298106624
31.533204,0.21416960124593823,0.019012981185271983
31.535591999999998,0.2757888734941106,0.028265280019015817
31.537972,0.35095252854263864,0.03764265474128535
31.540367999999997,0.4483205956832476,0.04676579772096799
31.542756,0.5629577078633256,0.05578104793182247
31.545136,0.701108872777239,0.06447150157826996
31.54754,0.8577397875441202,0.07295456977046716
31.549927999999998,1.03149997772361,0.08135533348816232
31.552308,1.2215980473827905,0.0897025207454023
31.554711999999995,1.430175866894939,0.09792438549009409
31.557095999999994,1.653788313274662,0.10611115572455142
31.559479999999997,1.8880590979767888,0.11435736748963747
31.561876,2.136430747672812,0.12248792190102262
31.56426,2.3931809915489706,0.1306278991553413
31.56664,2.662501022553202,0.1386549253033485
31.569039999999998,2.944018753633169,0.14656813130056806
31.571428,3.224278558071395,0.15452723870568355
31.573808,3.504585584337864,0.16242810241426683
31.576212,3.777957038663175,0.1703035933686166
31.578596,4.039227132427106,0.1682572416739629
31.58098,4.282017476338071,0.16697161474120098
31.583383999999995,4.5141041559562565,0.16550499074035824
31.585772,4.742796726133031,0.16374158160705965
31.588151999999997,4.955151416830114,0.16223240421634796
31.590548,5.152518702487868,0.16081353928418027
31.592935999999995,5.327449258628063,0.15973930658347954
31.595316,5.481246337862814,0.15891048336136823
31.597711999999994,5.617821593886339,0.15812601590473235
31.6001,5.737686883377838,0.15737501324966965
31.602484,5.833904738538279,0.15681734811461828
31.604879999999994,5.917277059032664,0.15619730358065442
31.607268,5.991900594152446,0.15543954796885892
31.609647999999996,6.047158539829855,0.154875349303017
31.612044,6.093573256476175,0.15427690445239065
31.614431999999997,6.125370759277629,0.15381623404992661
31.616812,6.14185220009992,0.15352874278418807
31.619212,6.150234585995796,0.15323705703871995
31.621599999999997,6.151401860696788,0.15297807884562364
31.623996,6.142513305695324,0.15284568580944763
31.626392,6.129620549201026,0.15279901215480507
31.62878,6.1168203405053445,0.1527929401170308
31.631159999999998,6.099317082182528,0.15292098557958816
31.633564,6.073945190500906,0.15320131475474497
31.635952,6.049272146953584,0.15343324365989913
31.638332,6.025809808219759,0.1536269498069869
31.640736,6.005280735792131,0.15376257044125285
31.643123999999997,5.990897735230613,0.15376249039419507
31.645503999999995,5.973813785788377,0.1538504285008074
31.647899999999996,5.955379361905783,0.15398282010068837
31.650288,5.945325428061194,0.15396828834586967
31.652668,5.932802862761364,0.1540700980930966
31.655064,5.917951435633154,0.15427854604043922
31.657452,5.911340728916088,0.15435213753883778
31.659831999999994,5.90645258369172,0.15440181008477435
31.662232,5.905428870333323,0.1543788151132861
31.66462,5.907478192907983,0.15428978991564862
31.666999999999994,5.9163252136548135,0.15407263753989217
31.669396,5.926894795894339,0.153835727431237
31.671783999999995,5.948406047425725,0.1533836106893673
31.674164,5.972850565263308,0.1528738524294148
31.676564,5.99999603198161,0.15227745183607427
31.678951999999995,6.030494073886684,0.15159214436687907
31.681332,6.055777209485427,0.15101489610407606
31.683736,6.0803614969498705,0.15048604811127567
31.686124,6.100522274040899,0.15006577389672807
31.688503999999995,6.122126073370904,0.1496455588152374
31.6909,6.14251916788741,0.1492680703529335
31.693287999999995,6.165845528710111,0.14883190235675084
31.695671999999995,6.190103055092591,0.14837712498012048
31.698068,6.212078941474933,0.14798692100693345
31.700456,6.234334367110995,0.14757784944084776
31.702839999999995,6.257940267187417,0.14712615832185708
31.705236,6.278892440211364,0.1467172564664211
31.707624,6.297842512488893,0.14635152053450948
31.710007999999995,6.31292815290045,0.14605629206184384
31.712404,6.331086829245061,0.14570321291664523
31.714792,6.344589677790783,0.1454281372764306
31.717175999999995,6.353436698537611,0.14522611908744476
31.719572,6.355625790739132,0.14513510331034912
31.72196,6.356232091074816,0.14505538698451748
31.72434,6.3560469954775805,0.14498144327108914
31.72674,6.358934935813402,0.14484962946691315
31.729128,6.3701108183886115,0.14455584323428547
31.731508,6.384499506523734,0.144198345163893
31.733903999999995,6.408107302458026,0.14367224362543934
31.736292,6.42999253689962,0.14316847019111836
31.738676,6.445591929848244,0.1427853790835841
31.741072,6.468128790595896,0.1422929689749094
31.74346,6.49639241432908,0.14172014875803057
31.745839999999998,6.522793706942705,0.14117334089092573
31.748236,6.548403603623412,0.1406305370309564
31.750623999999995,6.573361873998062,0.1400865291046357
31.753004,6.598599683626431,0.13952964650949615
31.755399999999995,6.6214633054560466,0.13898617243885986
31.757788,6.647679502472439,0.1383738658758175
31.760183999999995,6.667237770943522,0.13786072392828178
31.762579999999996,6.685073477921909,0.13736386192020245
31.764968,6.70705315601999,0.13679280911449998
31.767351999999995,6.730615625983908,0.1362132660146084
31.769747999999996,6.760044628560215,0.13555010169633752
31.772136,6.7921273581889965,0.1348646545066188
31.774516,6.820066116698085,0.13425748046280858
31.776915999999996,6.843721134460618,0.1337345326999731
31.779304,6.8615096196107626,0.13330075978042594
31.781684,6.872081097708157,0.13299391757661586
31.784083999999996,6.884514906925108,0.13266576870179467
31.786472,6.902303392075251,0.1322385257532987
31.788852,6.908079272746894,0.13199928129101524
31.791251999999997,6.906126289686589,0.13186850751973755
31.793636,6.906454946626423,0.13169179775783305
31.79602,6.907714769126033,0.1315034520662369
31.798416,6.910836922745202,0.1312931498357293
31.800804,6.9120967452448125,0.13110577267997295
31.803188,6.918012395543315,0.13086273180025546
31.805584,6.920855009908762,0.13066918255498963
31.807972,6.927050199460985,0.1304109934522923
31.810356,6.93683028162546,0.13011613240009134
31.812752,6.94446849341666,0.1298602686472765
31.81514,6.9515948485286625,0.1295936327913253
31.817524,6.95350629733433,0.12941362218993555
31.81992,6.951693083900887,0.1292770625253097
31.822308,6.949600331213722,0.12915510148065973
31.824692,6.950720384086472,0.12897898583050615
31.827096,6.957567199944754,0.1287317917534418
31.829483999999997,6.966416116549452,0.12845604481378858
31.831864,6.971260831661318,0.12823782921482027
31.834267999999994,6.977828108265878,0.12800802026665264
31.836659999999995,6.9896102911767715,0.12769367273220258
31.83904,7.005396675580498,0.12732117364096412
31.841435999999995,7.019041189610948,0.1269856303442093
31.843824,7.033896408454895,0.12662628682164434
31.846208,7.046749526552428,0.12629718507022333
31.848608,7.061464975769515,0.12594817405136324
31.850995999999995,7.073247158680408,0.12563986388376003
31.853376,7.086100276777939,0.12531398645363348
31.855776,7.101467352301085,0.1249754004141903
31.85816,7.116182801518174,0.12463519413747778
31.860539999999997,7.127964984429067,0.12433055958116046
31.862944,7.137465527339822,0.124067183087665
31.865331999999995,7.146174674317661,0.12380625165717385
31.867712,7.156746152415055,0.12352588249305901
31.870116,7.172672306445643,0.12316197909845034
31.872504,7.184594258983396,0.1228528229113924
31.874883999999994,7.192791549282036,0.12258450491454528
31.877287999999997,7.198474882155062,0.12233109479578426
31.879676,7.207231250961143,0.1220339629161308
31.882056,7.209981317527973,0.12181676795094783
31.884452,7.215804420027858,0.12155799695741322
31.88684,7.223909162527881,0.12126164135007594
31.889219999999995,7.232153674654763,0.12095764811065879
31.891616,7.240677726035367,0.12064169949457906
31.894003999999995,7.248550151109913,0.12032101412565623
31.896384,7.254700014691761,0.12001241541641297
31.898788,7.261269187154191,0.11968340654379198
31.901176,7.267978129243482,0.11934804192405989
31.903555999999995,7.272033344280297,0.11903482951436198
31.905959999999997,7.273295062637778,0.1187485490066696
31.908348,7.27991145692845,0.11838304301893873
31.910728,7.289740656779039,0.11796987298455834
31.913127999999997,7.301991266256627,0.11751235460498313
31.915516,7.310656983121959,0.11708280206431537
31.917896,7.313735706628623,0.11670804613185727
31.920292,7.318164904575645,0.11630282914316636
31.92268,7.322873641776387,0.11588336997285034
31.925059999999995,7.329724249350407,0.11543259845650082
31.92746,7.336202769872089,0.11496472488986535
31.929844,7.349386440767321,0.11439185171340004
31.932227999999995,7.359776614983218,0.11384852820174038
31.934624,7.365231422146503,0.11336238008885952
31.937012,7.372967869309925,0.1128405975077692
31.939392,7.37856244610007,0.11234983385668283
31.941792,7.384157022890216,0.11185857406468466
31.94418,7.392824635613416,0.11133179276497861
31.94656,7.401632017963477,0.11079991501960687
31.948955999999995,7.407645903634203,0.11029047821278314
31.951344,7.41272862374515,0.10978908018273507
31.953723999999998,7.419533905348794,0.10927806549703965
31.95612,7.425268251765798,0.10878494410838255
31.958507999999995,7.431282137436524,0.10828108288068941
31.960891999999998,7.435293922360833,0.10780010020284896
31.963283999999994,7.445032470270671,0.10726892915476047
31.965672,7.4555624141134285,0.10673596006545495
31.968056,7.467954689075743,0.10618985906346955
31.970451999999995,7.4802071944111965,0.10565020807690854
31.97284,7.493251095679568,0.10511256102012013
31.975219999999997,7.507738019186915,0.10458375416091924
31.977624,7.5179412019477105,0.10411240109715098
31.980011999999995,7.52600251433523,0.10366752047016892
31.982392,7.533132661162969,0.1032273725400069
31.984792,7.541845599856546,0.10279005308497205
31.987179999999995,7.552281100042819,0.10234640219119281
31.98956,7.566720801721925,0.10186593634456516
31.991955999999995,7.57487466190806,0.10145698029518298
31.994344,7.582609213213615,0.10106816870168334
31.996728,7.596722153810758,0.10064126861381004
31.999123999999995,7.610835094407901,0.10021426014967616
32.001512,7.628021070938099,0.09975846690162761
32.00389199999999,7.641994241908382,0.0993412140776889
32.006296,7.655827643251803,0.09893321078074775
32.008683999999995,7.669381505341505,0.09853768950122727
32.011067999999995,7.678000000378595,0.09818723884524577
32.013464,7.686478725788825,0.09784273661164786
32.015851999999995,7.689882314519582,0.09754702944227103
32.018232,7.693146133623479,0.0972572427762138
32.020632,7.691055276794184,0.09702882741127974
32.023019999999995,7.682026952165859,0.09686182025128752
32.0254,7.669646052350759,0.0967381915221282
32.027795999999995,7.65619421734902,0.09662674078735552
32.030184,7.648049836452231,0.09649028355215908
32.032568,7.633759383689332,0.09641661427096268
32.034963999999995,7.6142540246201,0.09640005164022768
32.037352,7.589254219990814,0.09645222896994765
32.039731999999994,7.571052113533697,0.0964478733155412
32.042128,7.550428597449583,0.09648201135775558
32.044512,7.52286761356644,0.09657862103749784
32.046896,7.495678716735635,0.09669453083609195
32.049288,7.4632749135984975,0.09686562313832486
32.05167599999999,7.431522736767419,0.0970448017973856
32.054072,7.395067510309205,0.09729492903401964
32.056472,7.359124140530188,0.0975584241988304
32.05886,7.326765663363424,0.09780227177535963
32.06124,7.295058812502718,0.0980527124148951
32.063635999999995,7.271592682053157,0.09825277098310503
32.066024,7.248638408282794,0.09846616150127936
32.068403999999994,7.230339962311322,0.09865004915994689
32.0708,7.218559675258298,0.09879090261366621
32.073187999999995,7.214368482310363,0.09887485105973375
32.075571999999994,7.21762661384065,0.09890831151560785
32.077968,7.216880543878106,0.09897958175368753
32.080355999999995,7.21827634428884,0.09902565854394632
32.082736,7.227680547685238,0.09899539591416757
32.085131999999994,7.238947082201195,0.09895202162356803
32.08752,7.245138480037679,0.09896003757256214
32.089904,7.2517491867547434,0.0989481792416648
32.092299999999994,7.264366195711059,0.09887842280284195
32.094688,7.276471347988178,0.09879532377831475
32.09706799999999,7.2904388313848525,0.09869894077999045
32.099467999999995,7.306687954781665,0.09857013811126364
32.101851999999994,7.329222919671449,0.09836963778636221
32.104251999999995,7.3501750926953955,0.09816797907054259
32.10664799999999,7.366052129039869,0.09801796429962119
32.109036,7.384582892436819,0.09785599111947482
32.111419999999995,7.398597597661737,0.09772133580976217
32.113823999999994,7.41461440363307,0.09756792208347781
32.116212,7.432773079977682,0.09739031748469129
32.118592,7.450140360389375,0.0972138077284967
32.120988,7.462991582629037,0.09706297980960793
32.12337599999999,7.469184876323393,0.09696227593012466
32.125756,7.476449105204385,0.09684880380711122
32.12815199999999,7.4865068307647125,0.09671741887490493
32.13054399999999,7.492839894085926,0.09661143303587924
32.132924,7.498521331101082,0.09649858711721071
32.13531999999999,7.5082069696090725,0.09634900488483596
32.13771199999999,7.523479601475731,0.09616435224814124
32.140092,7.533956635916638,0.09601647997030338
32.14248799999999,7.546156231850244,0.09586345407060634
32.144876,7.562499798903543,0.09566989140713024
32.14726,7.577492891516483,0.09550140405073143
32.14965599999999,7.590344113756146,0.09535835428232807
32.152044,7.606640458981201,0.09520483879596936
32.154424,7.628943106445507,0.0949981101719479
32.15682,7.646729695737782,0.09481403189678676
32.159212,7.664096976149476,0.0946484011827397
32.161592,7.68160402618803,0.09447808657018908
32.16399199999999,7.696177809920388,0.09433194983170969
32.166376,7.710611824025887,0.09419264166227292
32.16876,7.726908169250941,0.09404247699471065
32.17115999999999,7.744927075968692,0.09388648763557231
32.173548,7.764016917873083,0.09371927382128499
32.175932,7.780033723844419,0.09358134918048498
32.17832799999999,7.794560285748536,0.09347323444323707
32.180716,7.811880344331986,0.09334897331235487
32.183096,7.8281294677287985,0.09323727756024958
32.185492,7.836649727393662,0.09318174292785464
32.18787999999999,7.847823714111001,0.09311574622601926
32.190264,7.862862132694317,0.09302334395074677
32.19266,7.870683544224881,0.09299906625647769
32.19504799999999,7.881857530942221,0.09293520553910634
32.197432,7.891448725793724,0.09287016639058208
32.199828,7.900528063966029,0.09279299518880932
32.20221599999999,7.907884840645639,0.0927211184868727
