Time,Force,Position
28.555732000000003,0.03832829201035176,0.0
28.558136,0.0380715969255686,0.0
28.560524,0.03781490184078544,0.0
28.562908,0.035556106009585434,0.0
28.565304,0.033017770924665006,0.0
28.567692,0.028617104720187928,0.0
28.570076,0.02407666888885064,0.0
28.572472,0.01874483712459525,0.0
28.57486,0.013413005360339856,0.0
28.577244,0.011014439902279634,0.0
28.57964,0.008755644071079623,0.0
28.582028,0.005425913053241082,0.0
28.584412,0.0013047861024844303,0.0
28.586808,0.00025669508478315997,0.0
28.589196,0.0,0.0
28.59158,0.0,0.0
28.593976,0.0,0.0
28.596368,0.0,0.0
28.598748,0.0,0.0
28.601144,0.0,0.0
28.603532,0.0,0.0
28.605916,0.0,0.0
28.608312,0.0,0.0
28.6107,0.0,0.0
28.61308,0.0,0.0
28.61548,0.0,0.0
28.617868,0.0,0.0
28.620248,0.0,0.0
28.622644,0.0,0.0
28.625032,0.0,0.0
28.627416,0.0,0.0
28.629812,0.0,0.0
28.6322,0.0,0.0
28.634584,0.0,0.0
28.63698,0.0,0.0
28.639368,0.0,0.0
28.641752,0.0,0.0
28.644152,0.0,0.0
28.64654,0.0,0.0
28.64892,0.0,0.0
28.651316,0.0,0.0
28.653704,0.0,0.0
28.656088,0.0,0.0
28.658484,0.0,0.0
28.660872,0.0,0.0
28.663252,0.0,0.0
28.665648,0.0,0.0
28.668036,0.0,0.0
28.67042,0.0,0.0
28.672816,0.0,0.0
28.675204,0.0,0.0
28.677588,0.0,0.0
28.679984,0.0,0.0
28.682372,0.0,0.0
28.684756,0.0,0.0
28.687152,0.0,0.0
28.68954,0.0,0.0
28.691924,0.0,0.0
28.69432,0.0,0.0
28.696708,0.0,0.0
28.699092,0.0,0.0
28.701488,0.0,0.0
28.703872,0.0,0.0
28.706256,0.0,0.0
28.708656,0.0,0.0
28.711044,0.0,0.0
28.713424,0.0,0.0
28.715824,0.0,0.0
28.718212,0.0,0.0
28.720592,0.0,0.0
28.722992,0.0,0.0
28.725376,0.0036999222123067802,0.0
28.72776,0.01191590259664495,0.0
28.730156,0.023017927458935137,0.0
28.732544,0.03528343530648092,0.0
28.734928,0.046430786139145024,0.0
28.737324,0.0587416199570647,0.0
28.739708,0.07179662787965936,0.0
28.742108,0.08759791065334582,0.0
28.744508,0.10600569865126389,0.0
28.746896,0.12222439444766171,0.0
28.749276,0.13918726434873452,0.0
28.751676,0.15754593466054018,0.0
28.754064,0.18051321094299427,0.0
28.756444,0.20967188506193304,0.0
28.758840000000003,0.2410177555245228,0.0
28.761228,0.27869479345045745,0.0
28.763612,0.3184192580931829,0.0
28.766012,0.36219325019911586,0.009820475438119564
28.7684,0.4098770001413963,0.019546719017745705
28.77078,0.4645435438530795,0.028710782068932357
28.77318,0.5180694487484443,0.0381079925095215
28.775568,0.5690795003603255,0.04792451115807707
28.777948,0.6202746475694405,0.05796586633833665
28.780348,0.6785451363465757,0.06772296418235564
28.782736,0.7502693559833186,0.07700123578005741
28.785120000000003,0.8272046902106556,0.08672703839122985
28.787516,0.9135876579468973,0.09666784242192289
28.789904,1.0110010510578802,0.10655734541293108
28.792288000000003,1.121307200663161,0.11632283790068187
28.794684,1.2545166104948235,0.12568254427354195
28.797072,1.4064853094331746,0.13480716102723148
28.799456000000003,1.5756305056123774,0.14377783189335563
28.801852,1.7606017245920729,0.15256456992573197
28.80424,1.955160346707534,0.1613301049208706
28.806624000000003,2.168665249384787,0.169896644647543
28.80902,2.3918973248246647,0.1784360442124423
28.811412,2.6335638241471364,0.18681896749431381
28.813792000000003,2.8903593939936694,0.1852443362357211
28.816192,3.160841012125287,0.18365894508401343
28.81858,3.436348649250265,0.18263733263003284
28.820964,3.719071397570123,0.18139777613315414
28.823364,4.015062781152356,0.17962943099476372
28.825752,4.321389533690766,0.1775638304858573
28.828136,4.632372114028071,0.175706472438599
28.830532,4.9410277283948645,0.17426560509695702
28.832924,5.257648315634821,0.17220517372010047
28.835304,5.576741326045756,0.16975082444337916
28.837704,5.887272542537189,0.16726586137511962
28.840092,6.187798942870147,0.16481225403927063
28.842476,6.468821879991742,0.16274111550116888
28.844876000000003,6.728758562036138,0.1609135841449942
28.847264,6.971752960123028,0.15919771071542857
28.849648,7.1942201816401585,0.15763832206983364
28.852048,7.401886989573063,0.15605601781163503
28.854436,7.586465441682349,0.15466593510994067
28.856816,7.754241379460991,0.15327314531589695
28.859212000000003,7.897578486975659,0.15205701072877692
28.8616,8.016709081651827,0.15101560424803606
28.86398,8.119873883900643,0.15003633980611716
28.866376,8.211961038946475,0.14904497269890707
28.868764,8.297858692013692,0.14800318945278781
28.871144,8.367928426422544,0.14709631217063265
28.87354,8.42645398291959,0.14624117362477532
28.875928,8.470082786318049,0.1454890968871147
28.878308,8.503423442588574,0.14481210191939006
28.880704,8.523635233223583,0.14428401378924505
28.883092,8.530391397141118,0.14393885526328334
28.885472,8.53207242437918,0.14366924892096813
28.887872,8.527607379751128,0.14348994061719111
28.89026,8.5234218743768,0.14329821810073445
28.89264,8.521518009002609,0.1430663520971622
28.895036,8.515749711762442,0.14288207833977115
28.897424,8.507560004895279,0.14274339178395282
28.899804,8.49508655728156,0.14267119736816208
28.9022,8.48284542709332,0.14262033731220572
28.904588,8.469765679143922,0.14260749323019906
28.906968000000003,8.458780579739553,0.1425957865276441
28.909364,8.451612690372915,0.1425703007626805
28.911752,8.439741751379144,0.1426335292108139
28.914132,8.426288020519536,0.1427049566410267
28.916536,8.40552473480856,0.1428559568835703
28.918924,8.385460297231889,0.14297480839631277
28.921304000000003,8.36204328446844,0.1431525366708335
28.923704,8.341559538011186,0.14329194201609408
28.926092,8.321634870061374,0.14340513150841633
28.928476,8.296635065432088,0.1435935195181523
28.930872,8.271914800056523,0.14376888366509386
28.93326,8.244680577255345,0.14396453855365368
28.935640000000003,8.21465285777483,0.14419524307222217
28.93804,8.1814123327344,0.1444782405005428
28.940428,8.14775249881339,0.14477892969911263
28.942808000000003,8.113393816758078,0.14511687904445725
28.945204,8.08262002731502,0.14541775996126216
28.947592,8.055942987163412,0.14569140710062406
28.949976000000003,8.027775702944583,0.14600743842000172
28.952372,8.00263423283057,0.14631236513631288
28.95476,7.982428129769167,0.1465462271358858
28.957144,7.967297163387236,0.1467025433514591
28.95954,7.954959693684641,0.14682676390643978
28.961928,7.946067346967438,0.14691870623434888
28.964312,7.9467661951017385,0.1468851365529249
28.966708,7.950398309542235,0.14681194926914515
28.969096,7.95701091211717,0.1466632499890911
28.97148,7.962040722826268,0.1465234066141485
28.97388,7.969072634281783,0.14635584700541523
28.976268,7.98225061760341,0.14609548289223656
28.978648,7.99780278872379,0.1458232413182644
28.981052,8.015589378016065,0.14554354625398017
28.98344,8.038543651786428,0.14521686357649222
28.98582,8.064291422236128,0.14485687663343857
28.98822,8.090690818991884,0.14450056979183407
28.990608,8.12509861873331,0.14403216615213002
28.992988,8.157504317728314,0.14359267030228468
28.995388,8.19191211746974,0.143128229871882
28.997776,8.233536924263914,0.14255530448226175
29.000156,8.272787543259332,0.14199500261377365
29.002556,8.309896291881472,0.14147476152078323
29.004944,8.342209443077863,0.14101788390805947
29.007324,8.376012838341474,0.14052516371657245
29.009724,8.40394970099269,0.14010860278436055
29.012112,8.426159800658379,0.13976694881415216
29.014492,8.445296864391011,0.13947163564568196
29.016888,8.464945784802843,0.1391879618408089
29.019276,8.485246331520733,0.13890670812648045
29.021656,8.501402907118928,0.1386860752932102
29.024052,8.513275741970569,0.1385320541295978
29.026444,8.517419713090261,0.13847164896447067
29.028824,8.525847424956511,0.13834554363997
29.03122,8.530690244210504,0.13825368425946605
29.033608,8.532599797158305,0.13819869563846296
29.035992,8.535859824546462,0.13811482896167232
29.038388,8.53604681600157,0.1380743543021748
29.040776,8.538096138576229,0.13801405912308726
29.04316,8.539913143725412,0.1379328673813905
29.045556,8.536934551448843,0.13790665468603608
29.047944,8.535166663985772,0.13785829916434747
29.050324,8.531536445403145,0.13782929583086204
29.052724,8.527906226820518,0.13780031165165924
29.055112,8.522134137864613,0.13780315052309566
29.057488000000003,8.519574854468624,0.13775814194631922
29.059892,8.515944635885997,0.13772915352044604
29.06228,8.51259395655709,0.13768759967959285
29.06466,8.510174442787964,0.13763639952414197
29.067056,8.508686094578612,0.13757560159863363
29.069444,8.50784937267532,0.1375174224682797
29.071824000000003,8.509294290772166,0.13742090779080252
29.07422,8.519958316668177,0.1371983316730016
29.076604,8.525686975511578,0.13703825748960916
29.078984,8.53649077103445,0.13681170859095143
29.0814,8.552229933609933,0.13652524526714674
29.083784,8.562614420252222,0.1363177006030732
29.086168,8.569414014282263,0.1361426657694041
29.08856,8.57770385237952,0.13593451502666892
29.090948,8.581570180103363,0.13579551802865428
29.093328,8.587438608573619,0.13563163930898353
29.095732,8.595448907417156,0.1354376874600359
29.09812,8.60653224219375,0.1352040205806691
29.1005,8.622830483276674,0.13490141891612736
29.102896,8.642481299546374,0.13454810302395703
29.105284,8.664553525443072,0.13415469830030108
29.107668,8.687976225780128,0.13373402201256107
29.110064,8.712330091676963,0.1333059025279065
29.112452,8.733238834588406,0.13290402591230513
29.114832,8.755498051940206,0.13247782235199734
29.117228,8.781389383732504,0.13199025452164184
29.119616,8.808351650711439,0.13148994195636415
29.121996,8.833032277690238,0.13102927120997138
29.124392,8.86050640134837,0.13054378277956685
29.12678,8.885978424260088,0.13008566717089592
29.12916,8.906654849746053,0.12967742062572898
29.13156,8.93389665597871,0.12917784034183064
29.133948,8.964863124450478,0.12864537220184252
29.136328,8.993827492175832,0.12813918813378283
29.138724,9.022931629528046,0.12762422359649292
29.141112,9.052175536507118,0.12710640099861958
29.143492,9.080208738672692,0.1266124784625407
29.145888000000003,9.104796817852874,0.1261414828033826
29.148276,9.125660234793942,0.12570755673596878
29.15066,9.14638388210815,0.12528321711606147
29.153056000000003,9.16561728535514,0.12489240363291787
29.155444,9.184990458228988,0.12449719315938886
29.157824,9.201570134423502,0.1241256156524755
29.160224000000003,9.217078875431378,0.12376676664638969
29.162608,9.229002723827,0.12343447058779806
29.164992,9.238784701849346,0.12313045248922726
29.167388,9.247635514311915,0.122835111394905
29.169776,9.254903534908646,0.1225442195300308
29.17216,9.25886620214684,0.12226735465929685
29.174572,9.259243976772787,0.12201492285782617
29.17696,9.261903391398867,0.12173023692395585
29.179356,9.258416734158839,0.12151345367588164
29.181752,9.253207515426112,0.12130648420735667
29.184140000000003,9.24678759187989,0.12111792902419226
29.18652,9.245442805013136,0.12087578114816776
29.188916000000003,9.245168953333021,0.1206216985611945
29.191304,9.24410370571999,0.1203698207206238
29.193684,9.245412645905713,0.12011260120799264
29.19608,9.243369010904662,0.11989861700779439
29.198468,9.235319073664357,0.11974451423058391
29.200848,9.22461540937158,0.11960653293874582
29.203244,9.213492436198221,0.11948488051122176
29.205632,9.204371563771277,0.11934293047595822
29.208016,9.193108820971057,0.1192262118473229
29.210412,9.181566538917115,0.11912022127785186
29.2128,9.16802215611676,0.11903429370306148
29.21518,9.151264967756488,0.11898710416230403
29.21758,9.133576613836437,0.11894696835196734
29.219968,9.112675454356472,0.11894631189403822
29.222348,9.092705460436285,0.11893825229781324
29.224744,9.07045382651596,0.11896187273024986
29.227132,9.050344062968913,0.1189593359164151
29.229528,9.023017292369119,0.11903991038812896
29.231928,8.993828190649765,0.11913672872375072
29.234316,8.95956395225094,0.11928757745519421
29.236696,8.919945037918922,0.11950512967598759
29.2391,8.878975649146545,0.11974732835309145
29.241488,8.837214864441249,0.11998983869388742
29.243868000000003,8.800249677161707,0.12018888781113868
29.246264,8.769151022494555,0.12033126079074857
29.248652,8.739635159693238,0.1204703469096417
29.251036000000003,8.707977426518644,0.1206371360179681
29.253432,8.675900384463468,0.12082059837931283
29.255816,8.648758709460905,0.12095506704080589
29.2582,8.625853553376654,0.12106818666022325
29.260596,8.604019332479043,0.1211682869638091
29.262984,8.586980709007182,0.12122439633901698
29.265364,8.574178604453632,0.12125924244089953
29.26776,8.570548385871003,0.12122370284035794
29.270148,8.569012815833412,0.12119431118825107
29.272528,8.57106213840807,0.12114027647935151
29.274924,8.575206109527766,0.12109254746286642
29.277312,8.590151980312461,0.12093726368839722
29.279692,8.609474139642328,0.1207550300702178
29.282092,8.631450026024671,0.12055540179007364
29.28448,8.656498948340067,0.12031965181596144
29.28686,8.682479036215243,0.12007567889505988
29.28926,8.705246318530504,0.11987146017475993
29.291648,8.72522010416643,0.11969129231297068
29.294028,8.743331558682799,0.11952788757654305
29.296428,8.762513948385806,0.11935146317689846
29.298816,8.784909143648731,0.11913427893098723
29.301212,8.805442007792097,0.11893164756881323
29.303608,8.829559764547719,0.11870735450225646
29.305996,8.851303333504582,0.11848982710323122
29.308376,8.875840399140781,0.11825095935004035
29.310772,8.899306529590342,0.11802685377718826
29.313164,8.91890822817393,0.11783879220524733
29.315544,8.935064803772125,0.1176709991213815
29.31794,8.952711623437537,0.11747420667160846
29.320328,8.970498212729812,0.11727330358643295
29.322712,8.98684177978311,0.1170704035218874
29.325108,9.00253372053035,0.11686653506609801
29.327496,9.018924509411892,0.11663669085954637
29.32988,9.0325218016141,0.11642734488359724
29.33228,9.047981424935864,0.116205041538924
29.334668,9.065722688257765,0.1159535583132365
29.337048,9.089330484192054,0.1156498385414721
29.339444,9.115731776805678,0.1153264346031378
29.341832,9.141062134232666,0.11501547447054128
29.344216,9.165601095726736,0.1147069372283614
29.346612,9.190000287593945,0.11440544028683304
29.349,9.219614385767485,0.11404972850828793
29.351384,9.2417791594628,0.11374909387255715
29.35378,9.268739530583867,0.11341332392821682
29.356168,9.292766635398735,0.1131037471377889
29.358552,9.316701192414993,0.11277001919398205
29.360952,9.343336698311965,0.1123918850567623
29.36334,9.366107772342964,0.11204456012466774
29.36572,9.387296054508127,0.11170146902832709
29.368116,9.405178983314757,0.11136873537345446
29.370504,9.424691925815466,0.11100456771217007
29.372888,9.442342537196618,0.11065612893218245
29.375284,9.456128716711799,0.11033873196277622
29.377672,9.47419863697353,0.10997614112795354
29.380056,9.490965304623149,0.10960662223387235
29.382452,9.507871741899626,0.1092347978634293
29.38484,9.523474926563988,0.10885685255746907
29.387220000000003,9.538845793802874,0.10846136173249996
29.38962,9.558500401788313,0.10802397531446166
29.392008,9.57950548421411,0.10756721616124473
29.394388000000003,9.600138479587569,0.10709737942808512
29.396784,9.619048913468333,0.10663755704649742
29.399172,9.640240987349237,0.10614987052423555
29.401552,9.651330009699437,0.1057192104455646
29.403952,9.664700672049774,0.10526285177577711
29.406336,9.678583191079307,0.10481788530068067
29.40872,9.690463609362425,0.10439005846559404
29.411116,9.705417063578595,0.1039348531424489
29.413504,9.720230748167909,0.1034856898055766
29.4159,9.73676699424992,0.10303074304362234
29.418296,9.751812996264709,0.10260295636987415
29.420684,9.76057315678653,0.10223093505029955
29.423068,9.769053778054628,0.1018677855228526
29.425464,9.772738801896974,0.10153666775451135
29.427852,9.772140084992769,0.10124621119840599
29.430232,9.763672734729756,0.10101289503395511
29.432628,9.751201182973908,0.10081059348572836
29.435016,9.735377056031282,0.10064402833876641
29.437396,9.715408957968966,0.10051327463001085
29.439792,9.693298989533371,0.1004022859412643
29.44218,9.670909481844056,0.10030055419280742
29.444564,9.645167398967967,0.10023368928479276
29.44696,9.621147877584571,0.10016080224348481
29.449348,9.601504644746349,0.100072124681723
29.451728,9.577857210415289,0.10001344636690002
29.454128,9.552347444964678,0.0999642123908023
29.456512,9.5284204713799,0.0999142024547128
29.458896,9.504493497795123,0.09986348315313487
29.461292,9.480706293837205,0.09980692880576163
29.463684,9.456919089879287,0.09974967938777556
29.466064,9.43327165554823,0.09968685809706104
29.468464,9.415910062710141,0.09956934438840936
29.470852,9.401761275431973,0.0994217037889424
29.473232,9.393339251139333,0.09923952113701666
29.475632,9.388781658712665,0.09903219198108257
29.47802,9.390230368525248,0.09877919414049106
29.4804,9.394332805390308,0.09851594938685523
29.482796,9.399366407815142,0.09824718016552048
29.485188,9.404539779866843,0.09797309470910848
29.487568,9.410644317478319,0.09769422917497693
29.489964,9.412884423223819,0.09743919175399304
29.492356,9.417126629715739,0.09716888226065837
29.494736,9.4207172099016,0.09689407675553544
29.497132,9.426961517139935,0.09661033298874028
29.49952,9.43907235699066,0.09628819289192303
29.501900000000003,9.452114362401163,0.09596157892642909
29.5043,9.463573575945833,0.09563506563861737
29.506688,9.473310227997803,0.09531294665326086
29.509084,9.479834074489858,0.09501950229582484
29.51148,9.48943095691497,0.09470369551802534
29.513868,9.498376213034026,0.0943828868979656
29.516252,9.507321469153078,0.09406354963820154
29.518648,9.514404394152576,0.09375395260809474
29.521036,9.518693822472736,0.09345928653484332
29.523416,9.526335825979674,0.09313331129498396
29.525816000000003,9.53490899504639,0.09280407618471702
29.528204,9.542690768180186,0.09247432314784802
29.530584,9.550752080567703,0.09213457523108998
29.53298,9.55867362332836,0.09179945894593579
29.535372,9.56487260459632,0.09146781061815816
29.537752,9.577869284036453,0.09109697330615968
29.540148,9.590354106797385,0.09071604111845248
29.542536,9.600557289558177,0.09035814003998659
29.54492,9.606663723027518,0.09000156663469366
29.547316,9.612258299817663,0.0896372265135795
29.549708,9.614640071047894,0.08929873929179864
29.552088,9.617021842278124,0.08896006600954011
29.554484,9.62126594462791,0.08861322606615397
29.556872,9.627651917350972,0.0882474817856796
29.559252,9.62509832152859,0.08793657724237412
29.561648,9.62105448163899,0.08764855348504715
29.564036,9.61500854100297,0.08737344670558163
29.56642,9.610685161859651,0.08709547831645037
29.568816,9.603428516410132,0.0868334222336194
29.571204,9.590956964654282,0.0866102475009511
29.573588,9.578485412898432,0.08638716250950819
29.575984,9.570157832262279,0.08613481032621165
29.578372,9.563692582745682,0.08587506630408345
29.580752,9.559508973229219,0.08559367956996344
29.583152,9.557839321138372,0.08531089796456932
29.58554,9.551234301994914,0.08505604179729037
29.587924,9.543139038784236,0.08482327295191291
29.59032,9.538116811506619,0.08457006331080687
29.592708,9.533606440908192,0.0843266649875835
29.595088,9.524393020682636,0.08413093677119507
29.597484,9.51946334120363,0.08390163520182084
29.599872,9.513043417657405,0.08369448432391015
29.602256,9.50727512041724,0.0834936284780007
29.604656,9.502437988736853,0.08328916336184668
29.607044,9.501465288922438,0.08306451633791645
29.609424,9.499701193175106,0.08283750934730268
29.611824,9.497937097427775,0.08261021474563081
29.614212,9.495102066493805,0.08239154475526476
29.616592,9.49478099298545,0.08217170116311158
29.619,9.493388984290457,0.08195920154882473
29.621388,9.487713234848908,0.08177971231595411
29.623772,9.473609773541112,0.08166157601958123
29.626168,9.454291405926984,0.08157977950464193
29.628556,9.429618362379662,0.08153918587616307
29.630936,9.402151822153005,0.08150840721736587
29.633344,9.37962064897896,0.08145004323713315
29.635732,9.362304382111247,0.08135481112707905
29.638112,9.344568806362954,0.08127383308116329
29.640512,9.33176859766727,0.08116641024771828
29.6429,9.31910815859845,0.08105382835861204
29.645284,9.306447719529631,0.08094099305330327
29.64768,9.298071021207367,0.08079581640560583
29.650072,9.289042696579042,0.08064415775183512
29.652456,9.279874602323856,0.08049719180586543
