Time,Force,Position
4.384423999999999,1.4203958300324588,0.1762345005435876
4.386803999999998,1.4850976175030326,0.1745959765685845
4.389199999999999,1.551382196839443,0.1730591724917514
4.391587999999999,1.6184581721087712,0.1717260505505738
4.393984,1.68581368663182,0.1702554606486642
4.396380000000001,1.7506552437292542,0.1690439884940754
4.3987680000000005,1.8155440226549315,0.1677210877444647
4.401147999999999,1.876196282662298,0.1667725591568276
4.403544,1.933682958937992,0.1660072735911963
4.405932,1.9909373177882088,0.1651382950128785
4.408311999999999,2.046236797720252,0.1643274097195417
4.410708,2.094226722800928,0.1640013794921433
4.413096,2.141053164896349,0.1636655565483338
4.415475999999998,2.185784958446736,0.1633052640150271
4.417871999999999,2.225628606772754,0.1631500630777096
4.420259999999999,2.2672420384197123,0.1627922387726374
4.422656,2.313465971895188,0.1618990606945436
4.427440000000001,2.3719744656714075,0.1618028785029314
4.429819999999999,2.39799419194335,0.1616921440317014
4.432220000000001,2.42112787373734,0.161638741138275
4.434608000000001,2.4481732092255464,0.1612755350370854
4.436988,2.474846457661416,0.1608949730462058
4.439391999999998,2.4960724823654754,0.1607414301658096
4.441779999999998,2.521582247816089,0.1603599833690024
4.44416,2.5487220269607818,0.1598451742878266
4.446563999999999,2.5754424972248944,0.1594116128625211
4.448951999999999,2.6037457593548425,0.158946906685805
4.451332000000001,2.6314899429773506,0.1585533785395494
4.453727999999998,2.6597459832790564,0.1581897217109784
4.456115999999998,2.6853010747000434,0.1580143437142374
4.458500000000001,2.7152324546662023,0.1576767004246001
4.460891999999998,2.7491208142969525,0.1572802219907874
4.463280000000001,2.78803708877893,0.156745725167108
4.46566,2.834914544418333,0.1559793741537283
4.468059999999998,2.881884547856353,0.1553314149292445
4.4704440000000005,2.926525689465992,0.1549309225250792
4.518235999999998,3.8899015002603,0.1548598940997588
4.520623999999998,3.9247191295929578,0.1548283587135524
4.523004,3.9601430592613,0.1546738558139011
4.525399999999998,3.997104454825104,0.1543733386687339
4.527788000000001,4.035603316284371,0.1539236979408993
4.530168,4.074428938825602,0.1533741102327843
4.532571999999998,4.109437351329103,0.1528528392118662
4.534956000000001,4.141839258608371,0.1523218447149762
4.53734,4.172985135103767,0.1517154136161453
4.539735999999998,4.200221253762816,0.1510947533487831
4.542120000000001,4.233650666116217,0.1502182398107037
4.544499999999999,4.264985429924587,0.1493415143143829
4.546903999999998,4.288219242948671,0.1486519970714009
4.549291999999998,4.309218637800861,0.1479839605923229
4.551672,4.327843844854296,0.1473503829823861
4.554068000000001,4.346096964855394,0.1466895069157665
4.556452,4.363838228177294,0.1460150608273031
4.606643999999999,4.129611574043704,0.1457612612313515
4.609023999999998,4.124585555050344,0.1456425043779274
4.611419999999999,4.125006759788794,0.1454112577432099
4.613807999999999,4.127430065273661,0.1451260151469554
4.616188000000001,4.134089889676838,0.144772187169182
4.618592,4.141401340386074,0.1444202920517581
4.620979999999999,4.148712791095309,0.1440644330284928
4.623356000000001,4.152020040311711,0.1438197708072836
4.62576,4.1536047280354165,0.1436056320228331
4.628148,4.158262451692177,0.1433007843326622
4.630527999999998,4.158404117176906,0.1430899814868234
4.632932,4.1523997107955255,0.1430613295507476
4.635316,4.153100454787696,0.142794283550841
4.637699999999999,4.15808493952642,0.1423838647252491
4.6401,4.161579180197926,0.1420529538186888
4.642488,4.166284125682929,0.1416732739154375
4.644867999999999,4.16656556079452,0.1414469916934385
4.647264,4.165776060719471,0.1412561752728134
4.649652,4.160051193591809,0.1411990467581401
4.663983999999999,4.115272178213179,0.1411555461781926
4.666363999999998,4.106893584033044,0.1411440845475615
4.668759999999999,4.101168716905383,0.141084073826483
4.671147999999999,4.098377116083918,0.1409491113018935
4.673531999999998,4.097308076755149,0.1407856779908945
4.675936,4.093026231866464,0.1407227700261484
4.678319999999999,4.092329279590032,0.1405898309648434
4.680699999999998,4.098709564739489,0.1402565893129597
4.683095999999999,4.103599605821727,0.1400003053355548
4.685483999999999,4.106068237276968,0.1398373293964404
4.687863999999998,4.106954076866373,0.1396895985954633
4.690259999999999,4.108771082015554,0.1395223597218321
4.740435999999999,3.980298672634185,0.1394222246394331
4.742819999999998,3.9792749592757897,0.1393845505695307
4.745204000000001,3.977180310730756,0.139379834309556
4.747599999999999,3.9832338347982494,0.1391522463897269
4.749983999999998,3.985795014052108,0.1390481221847691
4.752379999999999,3.9899389851718015,0.138931355124256
4.75478,4.001112971889142,0.1386927043775768
4.757168,4.015359994539535,0.1383670004626932
4.759547999999999,4.029467247563071,0.1380548035833769
4.761944,4.048370098012358,0.137620034495051
4.764332,4.069647136260399,0.1371659838151203
4.766711999999998,4.0921348793219385,0.1366675834328272
4.769112,4.112760291263923,0.1362040533097134
4.7715,4.133385703205906,0.1357488056769852
4.773879999999998,4.156804611827224,0.135239760706766
4.776275999999999,4.183017017127877,0.1346732513597666
4.778663999999999,4.20894988317481,0.1341393163196232
4.781043999999998,4.235813914781521,0.1335951127736171
4.783448,4.258533975268538,0.1331669693508892
4.785836,4.280183100568917,0.1327770099968148
4.788219999999999,4.29903872918996,0.1324440628139003
4.790611999999999,4.315100861131668,0.1321690601544894
4.792999999999999,4.330231827513599,0.1319115988572223
4.795383999999999,4.3404274268429175,0.1317782964423822
4.79778,4.3549067669187895,0.1315227348490066
4.800167999999999,4.366592610315328,0.1313230033639699
4.802547999999998,4.376323574793692,0.1311071033117248
4.804943999999999,4.3889878055782505,0.1308319961852669
4.807327999999998,4.403793906736087,0.1305015027350125
4.809723999999999,4.420369791214863,0.1300880153925764
4.81212,4.435223114200943,0.1296991196123713
4.814512000000001,4.452218307560298,0.1292613917315236
4.816891999999999,4.471495140919792,0.1287528302712376
4.819288,4.489980578346367,0.128255110329293
4.821676,4.501156460921577,0.1278752804191976
4.824055999999999,4.509678616444312,0.1275346985114701
4.826456,4.514056800847351,0.1272923783961028
4.82884,4.515361949317335,0.1271234642434297
4.831223999999999,4.5166670977873205,0.1269527648116991
4.83362,4.51489921032425,0.1268559593175439
4.836008,4.517415063607734,0.1266454957447595
4.838391999999999,4.520582543197276,0.1264407894164612
4.840788,4.527754224279651,0.1261472358447674
4.843176,4.534646366108305,0.125877018471293
4.845555999999998,4.539256867936823,0.1256766150635273
4.847956,4.546800636071536,0.1254160279716094
4.850344,4.555135800139168,0.1251528640769072
4.852723999999999,4.55639372678091,0.1250496630893302
4.8551280000000006,4.556440948609152,0.1249860030050212
4.857516,4.555137695997037,0.1249721668127367
4.867063999999999,4.549365607041133,0.1249589094144855
4.86946,4.554161204466885,0.1248729873775311
4.871848,4.559887967452415,0.1247720306420561
4.874227999999999,4.571109175997998,0.1245288712816259
4.876628,4.584612024543719,0.1242226870615714
4.879016,4.60398140570183,0.1238067249726491
4.881395999999999,4.62484103092716,0.1233266419855617
4.883800000000001,4.639694353913238,0.1229723118962473
4.886188000000001,4.656177690593396,0.1225493221525989
4.888567999999999,4.670658926527138,0.1221735904936281
4.890971999999998,4.6854197017146,0.1217759806480324
4.893359999999998,4.698457915409365,0.1213939784831605
4.89574,4.711775668357852,0.1209965568872883
4.898136000000001,4.7228117813062,0.1206609738970993
4.900524000000001,4.739202570187743,0.1201980204197873
4.902904,4.75279986238995,0.1197772432630083
4.905307999999998,4.76439505384574,0.1193967849685195
4.907692000000001,4.770915108622057,0.1191223169446787
4.910072,4.775293293025097,0.118895616239774
4.912472000000001,4.781673578174554,0.1186303328745831
4.914860000000001,4.785911992950734,0.1184162123431288
4.91724,4.787636450301301,0.1182251365242624
4.919647999999999,4.790152303584783,0.1180312156066956
4.922031999999998,4.79159722168163,0.1178637411194575
4.924412,4.793042139778474,0.1176973256506957
4.926815999999999,4.788900064516649,0.1176127206467565
4.929203999999999,4.78755148593416,0.1174878882275005
4.931584000000001,4.790998504777423,0.117285515518012
4.933987999999999,4.794165984366964,0.1171055006923951
4.936375999999999,4.79318949283681,0.1170091239551763
4.938755999999998,4.7952860372397135,0.1168533366448037
4.941151999999999,4.800315847948812,0.1166476418549902
4.943539999999999,4.801993083471135,0.1165232280389009
4.945920000000001,4.805951958993595,0.1163418863355936
4.948319999999999,4.80669802895614,0.1162308734087833
4.950707999999999,4.812239696344435,0.1160460259694394
4.953088000000001,4.820714630038927,0.1158134717403154
4.9554839999999984,4.832681908547053,0.1154915265987715
4.957871999999998,4.849724323734652,0.1150734099407719
4.960256000000001,4.865183947056416,0.1146644133847231
4.96266,4.881714505564817,0.1142317770399406
4.965048,4.89689458963286,0.1138418620060591
4.967427999999998,4.91421654407418,0.1134120853162651
4.969828,4.929396628142224,0.1130283629336096
4.972216,4.946299273702964,0.112636068963063
4.974595999999998,4.965576107062457,0.1122358197233115
4.976991999999999,4.982711070048674,0.1118832129129374
4.979384,4.999846033034889,0.1115357326313648
4.981763999999998,5.014978895274688,0.1112222298683612
4.984159999999999,5.034255728634182,0.1108288195665442
4.986547999999999,5.047386490127566,0.1105475085868878
4.988927999999998,5.060796790874669,0.1102494219735791
4.991323999999999,5.074486630875492,0.1099297282013484
4.993711999999999,5.089247406062954,0.1095931529203539
4.996092000000001,5.104147950877276,0.1092451508999363
4.998487999999998,5.116394768639124,0.1089256863805693
5.000875999999998,5.126267398602217,0.1086132226929248
5.003256,5.134649784498092,0.1083525850122278
5.005655999999998,5.144242875207465,0.1080661148444618
5.008043999999998,5.153416657036258,0.1078091072350313
5.010424,5.161519503678411,0.1075720562867795
5.012823999999998,5.170972824760924,0.1072950228078241
5.015211999999998,5.176561713977463,0.1070723672044366
5.0175920000000005,5.183361308007501,0.106819762007871
5.019991999999999,5.1845739086788685,0.1066312834592733
5.022379999999998,5.1847627959918405,0.1064069728491749
5.024760000000001,5.184020517745036,0.1061928656729143
5.027159999999999,5.178762181326198,0.1060219140281123
5.029547999999998,5.171921053041525,0.1058522143945893
5.031928000000001,5.1654992336374335,0.1056537872158079
5.034327999999999,5.160427888673699,0.1054145115515935
5.036715999999998,5.154145838896467,0.1052052290033302
5.039099999999998,5.149865889865652,0.1049651530434577
5.041495999999999,5.145446171207976,0.1047358814267349
5.043883999999999,5.1419576181100775,0.1044959868695011
5.046264000000001,5.139400230571958,0.1042463184695834
5.048663999999999,5.1352128293397605,0.1040531799474641
5.051051999999999,5.129442636241724,0.1038608538875319
5.053432000000001,5.1188768457179386,0.1037284110976305
5.055827999999998,5.107519659261233,0.1035963835541276
5.058215999999998,5.098444112804666,0.1034152997793328
5.060600000000001,5.089228796721237,0.1032433270591521
5.062995999999998,5.078942545451171,0.1030904264426011
5.065380000000001,5.070658394927523,0.1029076817282004
5.067764,5.064236575523431,0.1027040298271552
5.070159999999998,5.058326612798536,0.1025184199592616
5.072547999999998,5.05390689414086,0.1022843853440159
5.074932,5.05120973697588,0.1020385304353374
5.077327999999998,5.052097472423152,0.101761527306855
5.079715999999998,5.0528454382435655,0.1014957565122524
5.0821000000000005,5.05932016704951,0.1011642081320576
5.084499999999999,5.066865831042091,0.1008150445845876
5.086887999999998,5.075622199848174,0.1004415747161704
5.089268000000001,5.077301331228366,0.100169100079939
5.091663999999998,5.078980462608557,0.09989683571977
5.094051999999998,5.075584457309277,0.0996986409130894
5.096447999999999,5.075261487943052,0.0994527903644461
5.098848,5.074519209696245,0.0992338178128476
5.101232,5.074568327382357,0.0990137444124964
5.103615999999999,5.076619545814888,0.0987651162932443
5.106012,5.075877267568081,0.0985451397981452
5.1084,5.076345694134774,0.0982973371652001
5.110779999999998,5.077093659955188,0.0980286491848133
5.113175999999999,5.073697654655907,0.0978266040115458
5.115563999999999,5.070301649356628,0.0976239170731867
5.117947999999998,5.067045413684207,0.0974116251624056
5.120343999999999,5.062438703571427,0.0972370209139825
5.122727999999999,5.057831993458647,0.0970618575046916
5.125111999999998,5.053365052972728,0.0968775103828701
5.127503999999998,5.045825076553754,0.0967393618772133
5.134671999999998,4.992801549048241,0.0967069341988889
5.137055999999998,4.97767247852418,0.096648820174255
5.139455999999999,4.964964817627116,0.0965330792396269
