Time,Force,Position
7.808164,2.5974443430316967,0.1793307911857977
7.810551999999999,2.736767769764181,0.1752784161945564
7.812932000000002,2.86431470115938,0.1718895916702516
7.815327999999999,2.978734662776935,0.1690900130387299
7.817715999999999,3.0769546186837893,0.1671815530132983
7.820096000000001,3.1648411014923354,0.165390249430446
7.822491999999999,3.238389909709738,0.1640070982390711
7.824880000000002,3.3029084974409475,0.1627805873498141
7.827260000000001,3.356115224685826,0.1619395216137258
7.829656000000002,3.401874523310347,0.161208516182506
7.832040000000001,3.444562681859681,0.1603908453455096
7.83442,3.482829225893471,0.1595877958273794
7.836824000000002,3.5163946161579958,0.1587972272310082
7.839212000000002,3.54111488153356,0.1582377550698004
7.841592,3.5663016776179486,0.1575733853415497
7.855932000000001,3.6141537289296335,0.1572670723865821
7.858335999999999,3.6265818505729777,0.1572562809846113
7.860723999999999,3.64403788706755,0.1571509391920292
7.863104000000002,3.6658702121072935,0.1569403892846294
7.865499999999999,3.686863919385876,0.1568038382835771
7.867887999999999,3.7114425192767113,0.1565681941092475
7.870272000000002,3.742679047712855,0.1561197936857233
7.872676,3.7754058202162177,0.1555861471447
7.875059999999999,3.802405829734051,0.1552265092083622
7.910895999999999,3.826053264065108,0.1549878827648181
7.9132760000000015,3.819910983914735,0.1547741915589152
7.91568,3.81591057413764,0.1544835554515644
7.918068,3.808325271748292,0.1542769860193952
7.920447999999999,3.8013915956650015,0.1540739782101715
7.922848,3.803397488127157,0.1536020659363465
7.925236,3.805403380589312,0.153133052241054
7.927615999999999,3.811133935290581,0.1525710850652935
7.930012,3.819378447417464,0.1519654965392587
7.932395999999999,3.835723910328631,0.1511822005351703
7.934776000000001,3.8550951873446113,0.1503770182556048
7.93718,3.878051356972844,0.1494890543332491
7.939567999999999,3.901379613653415,0.1486247884375303
7.941948000000002,3.9230778566399054,0.1478615227793088
7.944352,3.948081452984929,0.1470453749687856
7.946736,3.968801308583399,0.1463758120791559
7.949116000000002,3.997809106421256,0.1454307811856724
7.951511999999999,4.027887839445753,0.1444510556413945
7.953899999999999,4.059177277283747,0.143421390685439
7.956280000000001,4.091956959188961,0.1423138808177633
7.958684,4.117147546989088,0.1414117851064144
8.032756000000001,3.8990698850222154,0.1411929476882193
8.035136,3.8984654805444,0.1411121882572694
8.037540000000002,3.896418053827609,0.1410339895207067
8.047092000000001,3.870862962406621,0.1410326907317481
8.049472,3.867279965652237,0.1408958815749954
8.051876000000002,3.862253946658877,0.1407615922290081
8.054264000000002,3.8576472365460974,0.1405860092999978
8.056644,3.856393101620095,0.1402921589094085
8.059040000000001,3.86193666486626,0.1398159594607514
8.061428000000001,3.8673404584855646,0.1393559806799393
8.063808,3.870881920985313,0.1389445824989678
8.066204,3.876425484231479,0.1384776379448051
8.068592,3.879827177104367,0.138080529633836
8.070972,3.881878395536896,0.1377442385995669
8.073372,3.8875145065816783,0.1373379804599219
8.075756,3.894593639865437,0.1369215978428066
8.07814,3.9057695224406457,0.1364557232830862
8.080536,3.9194593624414695,0.1359624826987036
8.082924,3.92886546169574,0.1356086717480899
8.085303999999999,3.939854352815845,0.1352423246155706
8.087708000000001,3.951914179122589,0.1348420456421346
8.090092,3.965044940615972,0.1344078381727216
8.092471999999999,3.9771047669227166,0.1340077302066722
8.094876000000001,3.988233427669683,0.1336226364279751
8.09726,3.997499757297092,0.1332836857226707
8.099644,4.0098391228575565,0.1328600829748255
8.10204,4.023901049910718,0.1324181614280945
8.104424,4.034889941030824,0.1320671735411675
8.10682,4.044947666591152,0.1317393539246615
8.109216000000002,4.0554247010320585,0.1313757329732674
8.111604000000002,4.061757764353273,0.1311245498499037
8.113984,4.066740353234128,0.1309318504664534
8.116387999999999,4.075447604354096,0.1306648067749949
8.118775999999999,4.086296725847343,0.130334135091813
8.121156000000001,4.092722336967173,0.1301427351940854
8.123552000000002,4.104223084766477,0.1298182384146168
8.125940000000002,4.113861501446223,0.1295361028966117
8.12832,4.118285011819638,0.1293985557552606
8.130723999999999,4.126433184432165,0.1291868193535318
8.133108000000002,4.134441587417832,0.1289896893857037
8.135488,4.141890911896059,0.1288430010961784
8.137891999999999,4.151854193799901,0.1286696737695781
8.140279999999999,4.162608871636659,0.1284903102813504
8.142660000000001,4.176576355033334,0.1282183342058516
8.145059999999999,4.190124529549428,0.1279845102707257
8.147444000000002,4.200040589625026,0.1278809320218165
8.152224000000002,4.210281514924718,0.1278797506612018
8.154612000000002,4.217823387201562,0.1277965010953763
8.156996000000001,4.222292223545351,0.1277902258006181
8.159391999999999,4.231836196568612,0.1276587277725459
8.161776000000001,4.242079017726173,0.1274658314232035
8.164156,4.248736946271481,0.127332164311298
8.166559999999999,4.25539487481679,0.127200092740631
8.168944000000002,4.266755852989233,0.126913678766238
8.171324,4.27625450004212,0.126666046688017
8.173727999999999,4.282959650415671,0.1264681808078686
8.176112000000002,4.292737836722277,0.1261937483399396
8.178492,4.301445087842246,0.1259507864589914
8.180895999999999,4.309872799708494,0.1257329025906945
8.183283999999999,4.322444482694436,0.1254161501607557
8.185664000000001,4.329941029000906,0.1252175262180607
8.188060000000002,4.338880597546352,0.1250220649910233
8.190444000000001,4.347400857211217,0.1248636991877169
8.192828,4.359133922435998,0.1246243084280163
8.195231999999999,4.373288397287776,0.1243050679462198
8.197616000000002,4.387303102512694,0.1239947106012377
8.199996,4.406113405163364,0.1235929953379834
8.202399999999999,4.420639967067479,0.1233096294814598
8.204784000000002,4.439962126397347,0.1229374444028426
8.207168000000001,4.457282184980798,0.1226115006556162
8.209564000000002,4.475253869870307,0.1222964202414264
8.211952000000002,4.494808346625652,0.121973319152407
8.214332,4.51128978744794,0.1217182636087241
8.216731999999999,4.523487487523676,0.1215715533302227
8.219120000000002,4.534754022039632,0.1214415401251006
8.2215,4.548814053234923,0.1212648627799238
8.223896000000002,4.562082688497298,0.121093311907887
8.226284000000001,4.575910402267112,0.1208788948252418
8.228664,4.58843486342481,0.1206493916395466
8.231060000000001,4.59523256159698,0.1205227148527983
8.233448000000001,4.603660273463227,0.1203226170903276
8.235828,4.610133106411301,0.1201005703501811
8.238232000000002,4.616373621933899,0.1198385354128239
8.240620000000002,4.616468065590385,0.1197108694764227
8.243,4.617493674806649,0.1195694226233027
8.245396000000001,4.620521384769331,0.1193873828373303
8.247784000000001,4.622478159545374,0.1192331637675392
8.250180000000002,4.621222128761502,0.1191547320835306
8.252576,4.616101666111655,0.119145468509608
8.254964,4.614054239394864,0.11907089086894
8.257344000000002,4.610656338237715,0.1190434671931487
8.259739999999999,4.606746580401368,0.1189973208925064
8.262132,4.610845225550688,0.1187968943348817
8.264512000000002,4.620950172939259,0.1184829926279724
8.266916,4.631846516260747,0.118167365118679
8.269304,4.642742859582236,0.1178536039320491
8.271683999999999,4.65643269958306,0.1175031643340176
8.27408,4.667701129956885,0.1172224469685756
8.276468,4.678690021076991,0.1169618696313875
8.278848000000002,4.690749847383736,0.1166749709709203
8.281244,4.701598968876982,0.1164211232335984
8.283631999999999,4.712959947049426,0.1161860617582949
8.286016000000002,4.722690911527789,0.1160184706368962
8.336188000000002,4.569957184048201,0.1159853633459896
8.338592,4.564836721398354,0.1159709431937458
8.34098,4.562509755427843,0.1159166096422716
8.343359999999999,4.565909552442862,0.1157704901525698
8.35532,4.548825603000628,0.115745732242447
8.3577,4.552457717441124,0.1156377793590292
8.360104000000002,4.557812393374317,0.1155124475333066
8.362492000000001,4.56917337154676,0.1152726374097048
8.364872,4.5786720185996455,0.1150610095137606
8.367275999999999,4.588310435279393,0.1148356566535726
8.369660000000001,4.594736046399224,0.1146851563376845
8.37204,4.602651901586275,0.1144773318989572
8.374448,4.606051698601294,0.1143284307862417
8.376835999999999,4.6035849630039225,0.1142837460264088
8.384000000000002,4.588595662106722,0.1142695936725441
8.38638,4.584546134643515,0.1142299349091225
8.388776000000002,4.580496607180305,0.114190034566928
8.391164000000002,4.575376144530459,0.1141740268553345
8.393544,4.573188948186807,0.1141075428637992
8.395944000000002,4.573283391843295,0.1139816261733548
8.398332000000002,4.5772422673657545,0.1137917918666967
8.400712,4.582551617328574,0.1135555830231153
8.403108000000001,4.590002837664669,0.1132735590766938
8.405496000000001,4.59494010057515,0.1130115622664501
8.407876,4.6029503994186864,0.1126925474082093
8.410276000000001,4.606025331209612,0.1124604549574533
8.41266,4.610310967814034,0.1121948920433218
8.415044,4.618321266657571,0.1118803175076762
8.417448000000002,4.62554016956819,0.1115631957579585
8.419832000000001,4.632898842105669,0.1112389486833618
8.422212,4.641840306508985,0.1109099836403046
8.424608000000001,4.652783871658716,0.110543904048044
8.426996,4.668802573487919,0.1100888191946367
8.429376,4.6869631456904,0.1095861168086188
8.431776000000001,4.705403257146603,0.1090621659260621
8.43416,4.722120807110107,0.1085607115475726
8.436544,4.736976025954056,0.1080842691226037
8.43894,4.753041949611504,0.1075773129359728
8.441328,4.769107873268951,0.1070741465749644
8.443712,4.785034027299538,0.1065828362098806
8.446108,4.796304353531234,0.1061494632685336
8.448496,4.810507946069124,0.1056768114397423
8.450876,4.8225696682337365,0.1052512559594313
8.453272,4.835562555958129,0.1048172281547762
8.45566,4.844830781443407,0.1044306458397649
8.458039999999999,4.85088620136877,0.1041028685928846
8.46044,4.858803952413689,0.1037561813793983
8.462828,4.863928206779273,0.1034432808358777
8.465207999999999,4.878923195250081,0.102988450618809
8.467608,4.890146299653534,0.102634572513403
8.469996,4.899367303310571,0.1023099149721242
8.472375999999999,4.910590407714023,0.1019566992062691
8.474772,4.915667440251364,0.101708046448321
8.477164,4.922467034281403,0.1014504109821592
8.479543999999999,4.931408498684718,0.1011550918307
8.481948000000001,4.936066222341479,0.1009385860730003
8.484336,4.9396530108116,0.1007407975716918
8.486716,4.942168864095083,0.1005637833708447
8.489120000000002,4.940820285512594,0.1004365941700465
8.491504,4.942404973236299,0.1002703470990999
8.493888,4.949576654318674,0.100044601491413
8.496288000000002,4.951533429094717,0.0999081440987291
8.498676000000001,4.952279499057262,0.0998008203878203
8.501056,4.95102346827339,0.0997230408313479
8.503452000000001,4.950139524541855,0.0996743643002344
8.505836,4.960197250102182,0.0994702274528192
8.508216,4.967414257154932,0.099354089906056
8.513,4.976865682379575,0.0992475598183195
8.515396,4.9839429198054646,0.0991442180366376
8.517792000000002,4.99916832984388,0.0989223339455401
8.520176000000001,5.014114200628577,0.0987224444490072
8.52256,5.03241264660005,0.0984582605777534
8.524963999999999,5.048848761451966,0.0982142811793252
8.527348000000002,5.062863466676883,0.0980269611983247
8.529732000000001,5.082744704514191,0.0977683929772553
8.532128000000002,5.111146202016364,0.0974271642317931
8.534516000000002,5.143412131384512,0.097048829993787
8.536896,5.181544593365048,0.0966025918703451
8.539299999999999,5.214741688292972,0.0962196347352749
8.541687999999999,5.24714738728798,0.0958438871658026
8.544064,5.28462822296246,0.0954022026821271
8.546472,5.325321864196854,0.0949113222673845
8.548855999999999,5.36587573580439,0.094427230641032
8.551236000000001,5.404986585172948,0.0939290279636738
8.55364,5.433435304503364,0.093553658693214
8.556028,5.461791476035164,0.0931307372961294
8.558408000000002,5.4907067260744045,0.0926758330678113
8.560812,5.519110119434447,0.0921992148356553
8.563196,5.54057604499546,0.0918085781754111
8.565576000000002,5.554033567570808,0.0915213929579794
8.567976,5.562975031974123,0.0912640673129513
8.570359999999999,5.571497187496857,0.0910347087414609
8.572744000000002,5.579088177459814,0.0908129127949129
8.57514,5.586027541116712,0.0905808285826102
8.577523999999999,5.591803421788354,0.0903236267277312
8.579908000000001,5.590409517235489,0.0901111570345828
8.582303999999999,5.584220015256874,0.0899439411314784
8.584688000000002,5.575097246972064,0.0898066215533522
8.587072000000001,5.570909845739864,0.0896176500392889
8.589468000000002,5.564860113388109,0.0894428401821016
8.591856000000002,5.557879215476576,0.0892756017770809
8.594236,5.545962950512431,0.0891578828356347
8.596639999999999,5.535257390361783,0.0890166385945194
8.599027999999999,5.528695801330831,0.0888237479544732
8.601408000000001,5.52720934897935,0.0885721597275639
8.603804000000002,5.529727098120704,0.0882792876800486
8.606192000000002,5.531173912075417,0.0880020312649889
8.608572,5.5342035178959685,0.0877276369414175
8.610968000000002,5.54323942595577,0.0873908779531298
8.613356000000001,5.551344168455793,0.0870572665979215
8.615736,5.565455213195065,0.0866615229287473
8.618132000000001,5.579054401255142,0.0862491607820804
8.62052,5.592793358942079,0.0858277807175233
8.622916000000002,5.609745122188929,0.0853653949772942
8.625312,5.621574526928066,0.0850091922414409
8.627699999999999,5.633264162040343,0.0846610985963124
8.630080000000001,5.6452333364063385,0.0842961107929497
8.632484,5.657342280399195,0.0839236830731279
8.634872,5.665866331779799,0.0835699966561194
8.637252000000002,5.672108743160264,0.0832518838787287
8.639648,5.674626492301617,0.0829583321547433
8.642036,5.681288212562664,0.0826155750269436
8.644416000000001,5.68808970245057,0.0822655388782979
8.64682,5.693820257151839,0.0819326014398107
8.649208,5.698340107039609,0.081622760700189
8.651588000000002,5.6968536546881285,0.0813712427885511
8.653984,5.695367202336648,0.0811198887349063
8.656372,5.697512864425664,0.0808059548522574
8.658755999999999,5.694723159462068,0.0805353476944994
8.661152,5.700081627111,0.0801846495041658
8.66354,5.700364958080459,0.079884513468086
8.665920000000002,5.700508519423057,0.0795926166836939
8.668315999999999,5.700512311138795,0.0793078617558222
8.670703999999999,5.700236563600814,0.0790409396715417
8.673084000000001,5.704663865689967,0.0786986286291142
8.675480000000002,5.709091167779119,0.0783557078219218
8.677868000000002,5.711376599494995,0.0780365592240757
8.680248,5.714732966397509,0.0777058242952233
8.682644000000002,5.715947462926747,0.0773987561163019
8.685032000000001,5.718791973150063,0.077046007912013
8.687424000000002,5.721636483373379,0.076691346664637
8.68982,5.724620763223555,0.0763308819259454
8.692207999999999,5.726673877513955,0.075975223985579
8.694588000000001,5.720626041020068,0.0756419723359985
8.696988,5.708526576316557,0.0752608282911394
8.699372000000002,5.685300346723951,0.0748716335806549
8.701756000000001,5.648293625189773,0.0744797304642828
