Time,Force,Position
10.706616,1.0082076897205676,0.2203908357724035
10.708996,1.0202618284537044,0.2203382517071159
10.711396,1.035156685694419,0.2196298960913832
10.716164,1.0558217360331683,0.2193186640148801
10.718564,1.066387526556955,0.2189393561979893
10.720952,1.079374726707739,0.2180565066842309
10.723332,1.0927812357391036,0.2170583926507548
10.725728,1.1146154566367164,0.2147201999980066
10.728116,1.1357980512282713,0.2125002191884081
10.7305,1.1572601850735469,0.2103038928254227
10.732896,1.180724419665239,0.2078820909775986
10.735284,1.207541229443707,0.2049373444857965
10.737664,1.2312850032891192,0.2023875140978372
10.740064,1.2638285760531174,0.1988875799917707
10.742452,1.2926474865780018,0.1958863098078549
10.744832,1.3137375333709396,0.1938644041225979
10.747232,1.3355264282981785,0.1915218490456255
10.749616,1.3608076680390533,0.1884685517669447
10.751996000000002,1.3855770511007306,0.1855527882178186
10.754392,1.407692707109933,0.1828733398472785
10.756776,1.4226385778946296,0.1809754325434169
10.759172,1.4312060593877378,0.1797900870573729
10.761572,1.4391219145747882,0.1785983067553175
10.763956,1.44801615714986,0.1770420941507337
10.76634,1.4586801830458715,0.1752212821533177
10.768744000000002,1.4699032874493234,0.1733145679724083
10.771128,1.4759587073746865,0.1718018890192208
10.773508,1.47684644282196,0.1707679891323203
10.775904,1.475080451216759,0.1699356744951454
10.778292,1.471871437372582,0.1691507680443231
10.780672,1.4641463653563735,0.168723726460415
10.783076,1.4567008325938855,0.1682026294735318
10.785464,1.4528874142718935,0.1672192430181793
10.909704,1.144384840537048,0.1670994221775712
10.912108,1.1511806428513474,0.1670699405935416
10.914496,1.161049481098702,0.1666810633152131
10.916875999999998,1.1725483330401365,0.1659683319257147
10.91928,1.1812536883022355,0.1654966416430682
10.921668,1.191029978750973,0.1648559741922215
10.924048,1.201085808453431,0.1641697728045275
10.931212,1.2128623037907171,0.1640508477494472
10.933616,1.2184020753211438,0.1637624062652306
10.936004,1.2330211850238764,0.162474498048228
10.938384,1.2492230865924452,0.1611853524517887
10.94078,1.2648659096535733,0.1600622040246385
10.943164,1.2775754664085064,0.1592971034348534
10.945548,1.2910764190963573,0.1584674635540537
10.947944,1.3104439043965987,0.1570899074496539
10.950332,1.3303232463760375,0.1558560762495595
10.952712000000002,1.3516456105944528,0.1546277742838312
10.955116,1.372967974812868,0.1534378922814845
10.957504,1.3912173030982276,0.152559076895412
10.959884,1.4114687321300046,0.1515390772043159
10.96228,1.432511557094699,0.1505757796718663
10.964668,1.456068339485008,0.1495882669867588
10.967048000000002,1.4856314241145676,0.1481550519577917
10.969444,1.5182675446771827,0.1465299645622648
10.971828,1.5475510900530225,0.1452300143223063
10.974212,1.578557196921558,0.1438231104240023
10.976608,1.610634238976732,0.1423152786012741
10.978996,1.6480659569650988,0.1403830116331052
10.981376,1.683495574207049,0.1386453384522268
10.983772000000002,1.7110565580901915,0.1375266702211353
10.986160000000002,1.7358240452939997,0.1365948442137653
10.98854,1.7605915324978074,0.1356297508138391
10.990940000000002,1.7853590197016154,0.1346794125807795
10.993328000000002,1.8101265069054235,0.1337070111248925
10.995708,1.8327521237359543,0.1329603825733393
10.998104,1.853934718327509,0.1322530606803039
11.000492,1.8743259169861457,0.1315773768950831
11.002876,1.893646180458144,0.1309819955159418
11.005272,1.9156201709826173,0.1302751630735497
11.019612,1.981999193975514,0.130206086979096
11.021999999999998,1.9934508240887048,0.1301125074576308
11.02678,2.015050831702971,0.1299217680301767
11.029168,2.027061540323603,0.1297593346062451
11.031548,2.039351788197956,0.1295326086810918
11.033944000000002,2.0522011145797485,0.1292088870115026
11.036332000000002,2.068822325028898,0.1286221201100445
11.038728,2.085862844358628,0.1279748038496749
11.041124,2.1045333773824377,0.1271803786191945
11.043508,2.1229715929807704,0.1263202048576314
11.045891999999998,2.139407707832686,0.1255511330972534
11.048288,2.152119160445488,0.1248973541285998
11.050672,2.165901548244928,0.1241898270507688
11.053056000000002,2.178520453059113,0.1234398771930488
11.05546,2.191838206007599,0.1225692961526478
11.057844,2.2071580597025022,0.1216080345932121
11.060224000000002,2.221686517464487,0.1206468705786802
11.062624,2.236494514480192,0.119624335818274
11.065012,2.249068093324003,0.1185987354166435
11.067392000000002,2.261129815488617,0.1175592059743315
11.069788,2.2658347609736214,0.1168927301556505
11.072176,2.2657441090328736,0.1164052646024172
11.074560000000002,2.263791125972569,0.1159769986888114
11.076956,2.2589048766060693,0.1156684352574345
11.079339999999998,2.2581625983592635,0.1151685458728518
11.08172,2.2587235727245742,0.1147060584256854
11.08412,2.25486103671647,0.1144762371214927
11.086504,2.2489963999619484,0.114324764823338
11.093684,2.225069426377171,0.1142683161758852
11.096064000000002,2.21906501999579,0.1141354940683691
11.09846,2.211477821748572,0.1140121646789159
11.100848,2.203611084247634,0.1139312410562444
11.103231999999998,2.195604577119836,0.1138705886996708
11.105628,2.18694644368598,0.1137897606638361
11.108016,2.180569950252261,0.1135868732453199
11.110396,2.174053687191682,0.1134057395229978
11.1128,2.1701911511835776,0.1131655638526435
11.115184,2.1629760399886977,0.1130943798353367
11.117564000000002,2.159904899913512,0.112847884269712
11.11996,2.1593477172639406,0.1125618469570686
11.122348,2.1607926353607856,0.1121936508054062
11.124744,2.1620977838307707,0.1118491478041506
11.12714,2.162052457860397,0.111606324254245
11.129528,2.156420138531353,0.111527993883633
11.131908,2.1529296895755863,0.1113477370916314
11.134304,2.1488801621123783,0.1112611434562453
11.139072,2.138499467185826,0.1112169308463838
11.141472,2.1380348323348715,0.1110382350893599
11.143856,2.1372906582301963,0.1109078128959997
11.14624,2.137198110431579,0.1107956728441838
11.148636,2.136034627446324,0.1107346329776549
11.151024,2.1387355763270417,0.1105438066665675
11.153404000000002,2.143159086700456,0.1103270006783574
11.155804,2.1439504826333744,0.1103234719796944
11.158188,2.1495374759920445,0.1101707760844535
11.160571999999998,2.152982598977437,0.1101136479503233
11.256156,2.0459609482941272,0.1100295885111927
11.258544,2.0439135215773363,0.1098558643719392
11.28006,2.027201659187439,0.1098187834776287
11.28244,2.0346982054939087,0.109454331001752
11.284836,2.0412635862406,0.1091222498542469
11.287228,2.0499708373605685,0.1086897599095627
11.289608,2.055884591801202,0.1083365629370296
11.292004,2.062589742174753,0.107978515315636
11.294391999999998,2.0667809351226905,0.1076541328847413
11.296776,2.0680388617644323,0.1074383910579657
11.299172,2.0697160972867548,0.1071480412746993
11.301556,2.0736749728092145,0.1067424017393387
11.30394,2.077214539451094,0.106417006338178
11.306336000000002,2.082476667585669,0.1060761581749345
11.308724000000002,2.0880183349739654,0.105685734350491
11.311108,2.0906267360560657,0.1053875151352823
11.313504000000002,2.093142589339549,0.10497843660435
11.315892000000002,2.1028754496757838,0.1042814119117611
11.318276,2.11046643963874,0.1036721703959064
11.320672000000002,2.121270235161611,0.1029026269185555
11.323060000000002,2.129140764378288,0.102241960441454
11.32544,2.1359403584083254,0.101634396907125
11.327840000000002,2.1438108876250017,0.1009763653030731
11.330228000000002,2.1453955753487075,0.1005918905567364
11.332608,2.148051198259051,0.100165120428589
11.335007999999998,2.1496358859827565,0.0997867718612704
11.337396000000002,2.1552247751992955,0.0992759918994306
11.33978,2.1609534340426952,0.0987439081501598
11.504636,2.078789922503941,0.0982644899513175
11.50704,2.0820027280638573,0.0981415557129528
11.509428,2.089499274370327,0.0978487568307324
11.511807999999998,2.0965765117962163,0.097625414461749
11.514208,2.1067267851551605,0.097302115844623
11.516592,2.111522382580912,0.0971802314722401
11.518972000000002,2.122603821499635,0.0968168243048086
11.521368,2.129029432619466,0.0965548205164161
11.523756,2.1334529429928804,0.0963609894897802
11.526152,2.1355948133661573,0.0962737256943286
11.528552,2.140018323739572,0.0960722656025017
11.530936,2.1485858052326794,0.0957081419192248
11.535716,2.149796510046178,0.0956417025412411
11.538104,2.157665143404986,0.0954033595416306
11.540488,2.168047734189407,0.095147721578681
11.542884,2.1796410297873283,0.0948334974917876
11.545272,2.1912343253852486,0.0945192734048942
11.547652,2.2071113617297238,0.094036801638929
11.561988,2.228248630350904,0.0936115925002896
11.564384,2.2323926014705973,0.0934766176335304
11.566772,2.239330069269627,0.0932963588084036
11.569152,2.253344774494545,0.0929200308146253
11.571560000000002,2.2664283141596844,0.0925582922306466
11.573944,2.287799796064212,0.0919568441829072
11.576328,2.3091712779687392,0.0913553961351679
11.578724,2.3305427598732664,0.0907658721496225
11.581108,2.3540561121510715,0.0900955851331766
11.583488,2.3807822699887917,0.0893322158455771
11.585884,2.40271283040076,0.0886841115664206
11.588272,2.423060598946892,0.0880362613179275
11.590652,2.442616971560106,0.0874011916816961
11.593048,2.4611024089866813,0.0867945768934909
11.595436,2.478237371972898,0.0862733387232117
11.597832,2.492299299026059,0.0858218581494135
11.600228,2.5118556716392733,0.0851904751657551
11.602616,2.533274375372044,0.0845180951973075
11.705344,2.668935528556612,0.0839796645861713
11.707744000000002,2.661440878108011,0.0838750882057154
11.710132000000002,2.65557624135349,0.083673209841262
11.712516,2.649479287173492,0.0833938946962513
11.714912000000002,2.645943512247351,0.0830006055629312
11.717300000000002,2.636308887283343,0.0826291983099181
11.719684,2.6244398441474406,0.082215987535181
11.722080000000002,2.6107556917202244,0.081707910356043
11.724468000000002,2.5860373222025284,0.0813153431653046
11.726852,2.5572222033933825,0.0809002873356564
11.729248000000002,2.525660809733144,0.0803874923771408
