Time,Force,Position
13.770148,2.35309938296153,0.1903825424419531
13.772531999999998,2.4895745077549587,0.1877113817241672
13.774928000000005,2.625073141018236,0.185306552734883
13.777316,2.754195280847794,0.1832529837910193
13.779699999999998,2.8721453298178816,0.1818099458194897
13.7821,2.984138194234831,0.1803501654043156
13.784484,3.087659916673028,0.1790648924941333
13.786867999999998,3.179777230826277,0.1781258277991201
13.789264000000005,3.270221101172942,0.1769062383518164
13.791656000000003,3.35377662140669,0.1757242433763216
13.794035999999998,3.4335168274605774,0.1743609739347417
13.796436,3.5063686834015484,0.1730505961204124
13.798824000000003,3.5688398444159666,0.1719422664138654
13.801203999999998,3.6277280086760015,0.1707420493810186
13.803600000000005,3.6826138673010713,0.1695347019071192
13.805992000000003,3.730564153984982,0.1683861515595991
13.808372,3.763663013540682,0.1677106629019931
13.810772,3.785263021154949,0.167327864525936
13.813160000000003,3.800159774253532,0.1670454812085647
13.815544000000004,3.808073733582714,0.1668882058630643
13.825104000000003,3.807701646530377,0.1668486557138107
13.827496000000004,3.809191890597596,0.1667580637866427
13.829880000000005,3.812544465784372,0.1666101620639598
13.832276,3.817479832836984,0.1664365607835039
13.834664000000004,3.8278624236214056,0.1661148105645518
13.837048000000005,3.835264526271389,0.1659693351440992
13.839444,3.8428989463468497,0.1658697045941306
13.841832000000004,3.852628014967344,0.1657641776559073
13.844212,3.864172192879152,0.1656822154768268
13.846612,3.882374299336269,0.1654062361074735
13.849000000000004,3.900157096912805,0.1651777323032204
13.851384000000005,3.914447549675704,0.1650973727775064
13.85378,3.933114290983776,0.1649187220674213
13.856168000000004,3.963933406397207,0.1643418549015354
13.858552000000005,3.999548119236392,0.1636180827380229
13.860948,4.038747724687829,0.1628119032204957
13.86334,4.085024567565155,0.1617849657000908
13.865720000000003,4.1346539856292575,0.1606495284011729
13.868116,4.18456294294708,0.1594786100247992
13.870508,4.240106115451816,0.1581050278947106
13.872888000000003,4.293275100157797,0.1567901846790979
13.875287999999998,4.34113663075883,0.1556177323582332
13.877672000000004,4.387275599867165,0.1544984352265601
13.880056000000003,4.431040381176746,0.1534231992085645
13.882452,4.466424672448322,0.152568002329761
13.884840000000004,4.497712214428447,0.1517606373385143
13.887224000000003,4.527277194915876,0.1509832381762149
13.88962,4.554328217977691,0.1502585346884495
13.892012,4.5729987510015,0.1497298517181011
13.894392000000003,4.585662981786059,0.1493819802410932
13.896791999999998,4.599537917384117,0.1489913362590133
13.932628,4.518777789687573,0.1488913147510599
13.935015999999996,4.514263627373411,0.1488014136430604
13.937400000000004,4.508958069126331,0.1487193334670695
13.939796,4.508867417185583,0.1484864454104992
13.942188000000002,4.513060505991389,0.1481232380607818
13.944568000000004,4.515391263677639,0.1478032246229551
13.946964,4.520375748416361,0.1474381884219231
13.949351999999998,4.522799053901229,0.1471741490519413
13.951736000000004,4.524803050505516,0.1469432362135303
13.954132,4.529740313415997,0.1466398088175232
13.956519999999998,4.530673374833643,0.1464386510145085
13.958904000000004,4.529464565878015,0.1463028645246617
13.9613,4.533842750281056,0.146044836085197
13.963687999999998,4.538360704310956,0.1457749301936519
13.966072000000004,4.54087655759444,0.1455549714418692
13.968468,4.542461245318145,0.1453554369370441
13.970855999999998,4.542974997855213,0.1451892945710547
13.973240000000004,4.5453510815118365,0.1449832726825655
13.975636000000002,4.551172288153852,0.1447220507304839
13.978023999999998,4.559926761102064,0.1443896936367376
13.980408000000004,4.567750068490497,0.1440834335996298
13.982804000000002,4.573803592557992,0.143869233334593
13.985191999999998,4.582790382931679,0.1435877978208289
13.987576000000004,4.600437202597094,0.1431256861599593
13.989972000000002,4.6151507559563125,0.1427341700861395
13.992359999999998,4.628653604502033,0.1423833550973404
13.99474,4.637500625248863,0.1421251078291303
13.997140000000002,4.646766954876271,0.1418330461129694
13.999524,4.659385859690456,0.1414400178457369
14.001904000000003,4.670002663758224,0.1410950512424003
14.004312,4.687556935625023,0.1405877767980344
14.006700000000002,4.703248876372263,0.140113830867511
14.009079999999996,4.718428960440305,0.1396299813111369
14.011476000000002,4.734819749321846,0.1391091692074438
14.013863999999998,4.757496379696359,0.1384249483042548
14.016247999999996,4.77989347081715,0.1377590853434293
14.018648,4.801359396378165,0.1371091739102881
14.021031999999998,4.819100659700064,0.136532866207099
14.023415999999996,4.834188195969491,0.1360045712304726
14.025812000000002,4.846622005186443,0.1355209534530712
14.028204000000002,4.855191382537421,0.1351198183682038
14.030583999999998,4.864971464701895,0.1346799898817601
14.032980000000002,4.873401072426012,0.1342952373860461
14.035367999999998,4.867955744552073,0.1342160971103789
14.037751999999998,4.864884604476886,0.1341193179683564
14.040148000000002,4.860742529215062,0.1340504495985867
14.047316000000002,4.843473484175592,0.1340018667769557
14.049708000000004,4.839191639286907,0.1339434847256755
14.052087999999998,4.834909794398223,0.1338845613552745
14.054488,4.834632151002372,0.1337375659911096
14.056876000000004,4.835006133912578,0.1335969353552608
14.059260000000002,4.833889872755566,0.1335159204114247
14.061656,4.831562906785055,0.133472463815402
14.064044000000004,4.8315175808146815,0.1333657087302866
14.066423999999998,4.834824830031082,0.1331703427131437
14.068824,4.839854640740181,0.132953507394053
14.071212000000004,4.842230724396804,0.132772010679499
14.073596000000002,4.844327268799708,0.1326113066904305
14.075992,4.847354978762389,0.1324337237835542
14.078380000000005,4.846658026485957,0.1323195278494411
14.080759999999998,4.841165476783774,0.1322967036511548
14.083156000000002,4.843960869320979,0.132076937610319
14.085548000000005,4.84345090849965,0.1318899292006385
14.087927999999998,4.845222587678459,0.1316361975947304
14.090324000000004,4.848996367603684,0.1313386106349223
14.092712,4.859055989021881,0.1308887504973027
14.095095999999998,4.870326315253576,0.130403432057327
14.097496,4.8797343103657145,0.129954977244646
14.099884000000005,4.881413441745906,0.1296544905976815
14.119016000000002,4.754287715089157,0.1295924077638605
14.121403999999998,4.737250987475165,0.1295566685526939
14.123784,4.72328729579423,0.1294497223425314
14.126179999999998,4.713188035979267,0.129268259269667
14.128568,4.708583221724357,0.1289405092887114
14.130952,4.700905371536392,0.1286820532095481
14.133347999999998,4.6961607876546205,0.1283651467347492
14.135736,4.6938376133998485,0.1279751318918941
14.13812,4.691933748025656,0.1275544819851805
14.140515999999998,4.683744041158493,0.1272771999711934
14.142907999999998,4.674483399104691,0.1270250736411186
14.145288,4.6668055489167255,0.1267650842739864
14.147683999999998,4.667275871341287,0.1263351250208896
14.150072000000002,4.673472956751381,0.1258029774280218
14.152456,4.688097754027722,0.1250766830173506
14.154851999999998,4.706307443916315,0.1243051548150974
14.157244,4.719022688244855,0.1236607344180945
14.159624,4.732529328506314,0.1230085988971233
14.162019999999998,4.745756429514052,0.1223760072423305
14.164408000000002,4.75977492645471,0.1217390913413106
14.166788000000004,4.773513884141645,0.1211251825717327
14.169187999999998,4.784179805895525,0.1205786594613599
14.171571999999998,4.79256408764927,0.1200985175121853
14.173956000000004,4.802950470149431,0.1195851773570334
14.176352,4.814640105261707,0.1190937192225059
14.178739999999998,4.826841597053179,0.118619214173373
14.181124000000004,4.83955494552385,0.118167544929402
14.183515999999996,4.849287805860082,0.1178311639820966
14.185907999999998,4.857530422129096,0.1175521537615482
14.188288,4.871499801383641,0.1171820777877418
14.190688000000002,4.884398245451546,0.1168360392219966
14.193075999999998,4.89236132246684,0.1165774428607005
14.195460000000004,4.894829953922081,0.1164496780952123
14.197856000000002,4.899580225377459,0.1162667118352277
14.200248000000002,4.903491879071676,0.1161480829331972
14.202628000000004,4.90940563351231,0.1159975422284118
14.205024000000002,4.927331992431444,0.1156414032516153
14.207416000000002,4.950193718403191,0.1152104843584134
14.2098,4.973846840307855,0.114775469738772
14.212196,4.998431127772299,0.1143309586480273
14.214588,5.026088451169797,0.1138365946622295
14.216968,5.057610206433269,0.1132871067533627
14.219368000000005,5.089411500950461,0.1127195292914514
14.221760000000003,5.119070925094377,0.1122044278110697
14.224139999999998,5.146728248491875,0.1117285933587187
14.22654,5.177598377449289,0.1111955244745084
14.228928000000003,5.203952448234671,0.1107080972774118
14.231312000000004,5.232727928647052,0.1101632467759985
14.233712000000004,5.259641077939875,0.1096376552645843
14.2361,5.287625162419337,0.1091040766476749
14.238484,5.317471578018355,0.1085500662487024
14.240884,5.353603835110345,0.1078861633782971
14.243271999999996,5.393880063322029,0.1071513929609839
14.245652,5.4308037163469365,0.1064958565457048
14.248048000000004,5.465213411946229,0.1058605713639545
14.250436,5.4937565749331325,0.1053120701486056
14.25282,5.515362270121006,0.1048711218643791
14.255216000000004,5.533103533442906,0.1044849429026248
14.257604,5.551543644899108,0.1040553459005354
14.259984000000005,5.569192360422392,0.1036287336388525
14.262383999999996,5.586329219266478,0.1031929287101777
14.264772,5.600393042177508,0.1028040905007756
14.267152000000005,5.614596634715398,0.1024081271052031
14.269551999999996,5.627217435387453,0.1020142136146406
14.27194,5.638395213820531,0.101613190339127
14.274320000000005,5.6467794955742745,0.1012423675917647
14.276716,5.661170079567269,0.1007941573127432
14.279104000000004,5.674769267627345,0.1003505708603934
14.281488000000005,5.692512426807114,0.0998480286377465
14.283884,5.703597657441576,0.0994157829059445
14.286272000000004,5.714682888076038,0.0989858205339437
14.288656000000003,5.722555313150584,0.0986096063383405
14.291052,5.730427738225129,0.0982370818949858
14.293440000000004,5.739930176993754,0.0978170253709411
14.295824000000003,5.747430515015962,0.0974202873603135
14.29822,5.755862018597949,0.0970137000721066
14.300608000000004,5.766295622926352,0.0965835177167569
14.302992000000003,5.776868996881616,0.0961463249697625
14.305391999999998,5.789025162702714,0.0957132910589284
14.30778,5.802392033337314,0.0952587309163201
14.310164,5.811475163225358,0.0948688592515884
14.312559999999998,5.8229797027404,0.0944322771643932
14.314948,5.83541540781522,0.0939907359695858
14.317332,5.847571573636319,0.0935648405980269
14.319727999999998,5.8594482002036985,0.0931546450326564
14.322116,5.873466697144355,0.0927169876477479
14.324496000000003,5.882410057405538,0.0923415136298247
14.326892,5.889211547293446,0.0919970866835981
14.329280000000004,5.893219540502018,0.0916751800969291
14.331664000000004,5.899509173710728,0.0913136574007147
14.33406,5.90514718061338,0.0909443479760505
14.336448000000004,5.910133561209973,0.0905658877902145
14.338828,5.913676919567592,0.0901794060640766
14.341228,5.914798868298211,0.0898386956248059
14.343615999999995,5.917922917775249,0.0894759957590855
14.345996,5.921186736879146,0.089104500749693
14.348396,5.9208656633707895,0.0887507867464069
14.350783999999996,5.91612107948902,0.0884616005111748
14.353164,5.907651833368136,0.0881987715680887
14.355564,5.897040716873975,0.0879645848970469
14.357951999999996,5.886429600379815,0.0877291915896477
14.360332,5.875818483885654,0.0874936006487442
14.362728000000004,5.8610633962718,0.0873067704816943
14.365119999999996,5.846448078284805,0.0871111796003
14.3675,5.829970429178254,0.0869275528347455
14.369896000000004,5.80962834820573,0.0867760424523519
14.372287999999998,5.792359303166261,0.0865885348711657
14.374672000000004,5.774298862193874,0.0863983523107128
14.377068,5.755958881967767,0.0862232790503344
14.379455999999998,5.737199592861079,0.0860712293967441
14.381836,5.715786576701916,0.0859280428126418
14.384236,5.694233790915893,0.0857916253070325
14.386623999999998,5.669328429943094,0.0857046937203693
14.389008000000004,5.644562838597155,0.0856088452274552
14.391404,5.619005851318298,0.0855094043365886
14.393796000000002,5.594519799226079,0.0853941376535854
14.396176000000004,5.577622841238948,0.0852210552865848
14.398572,5.569153595118065,0.0849439299694964
14.400964000000002,5.562826219370459,0.0846379662456272
14.403344000000004,5.5586407139961285,0.084304343877613
14.405744,5.5556659134352975,0.0839474020396063
14.408127999999998,5.549338537687693,0.0836394763710094
14.410512000000004,5.548365837873278,0.083262471168087
14.412908000000002,5.548464073245504,0.0828715921172371
14.415300000000002,5.552706279737422,0.0824334317681413
14.417680000000004,5.556668946975621,0.0820091195533638
14.42008,5.556767182347846,0.0816144193777502
14.422468000000002,5.55686541772007,0.0812174775332679
14.424852,5.560036689025352,0.0807888977487321
14.427248,5.56427889551727,0.0803464342967165
14.429636000000002,5.57182645536772,0.0799060635447425
14.43202,5.581376115964589,0.0794479512104449
14.434416,5.593579503613931,0.0789794904972833
14.436804000000002,5.607784992009691,0.0784936857662472
14.439188,5.6230614155920895,0.0779958423956302
14.441584,5.636335738428072,0.077516372811022
14.443972000000002,5.640670492718607,0.0771176053779056
14.446351999999996,5.63993011032967,0.0767709145095852
14.448748000000002,5.6397015846199325,0.0764443575957584
14.451135999999998,5.634118382977,0.0761808481091096
14.453519999999996,5.629326577266987,0.0759201256653493
14.45592,5.625745476370473,0.07563725962541
14.458308000000002,5.618811800287182,0.0754011865984179
14.460687999999998,5.609596484203753,0.0751978440072742
14.463088,5.597959758493328,0.0750355727416038
14.465476000000002,5.58953583834282,0.0748346873034749
14.467860000000002,5.583905414871644,0.0746190329256938
14.470260000000003,5.581348027333526,0.0743733356753371
14.472648,5.575065977556292,0.0741453928564569
14.475032,5.565990431099726,0.0739294648261514
14.477428000000003,5.557194423896879,0.073697800751908
14.479816,5.544394215201198,0.0734983129573844
14.4822,5.530942380199459,0.0732865120551854
14.484596000000003,5.514277739637805,0.0731107757670964
14.486988000000004,5.493329358329597,0.0729827395979949
14.489368,5.472520746648249,0.0728449721061466
14.491768,5.4484067816083686,0.0726979332652589
14.494156000000004,5.417402570597702,0.0725487169936158
