Time,Force,Position
15.387307999999996,5.754075718000773,0.1543324718934033
15.389695999999995,5.796952763863081,0.1537606605844618
15.392076,5.836756773792334,0.1532741209133495
15.394471999999997,5.875629618161807,0.1528113606809543
15.39686,5.911429426598224,0.1524132782154066
15.399255999999998,5.946577608728584,0.152023382456868
15.401652,5.975999027873415,0.1517466533174128
15.404039999999998,6.004629051085327,0.1514851880231625
15.406419999999995,6.035400944670519,0.151179079070092
15.408815999999998,6.065800751203372,0.1508612242310214
15.411203999999998,6.092615665123973,0.1506012311974041
15.41358,6.117847787178738,0.1503554861257394
15.415975999999995,6.142288513300584,0.1501187568587259
15.41836,6.166729239422429,0.1498775931849812
15.420752,6.195313936663967,0.1495489057502988
15.423147999999998,6.218591179800555,0.1492964835549426
15.425535999999996,6.235210494391835,0.1491613878102478
15.427912,6.2538319097295325,0.1489856311327887
15.430308,6.27287263394781,0.1487842325377616
15.432692,6.29112196223317,0.1485911993728685
15.435087999999997,6.3097905993991095,0.1483743277597343
15.437483999999998,6.321009912086824,0.1482781694549504
15.439871999999998,6.3307862025355615,0.1481862874381213
15.442248,6.339910866678242,0.1480926097733995
15.444651999999998,6.352388106007698,0.1479180120899263
15.447039999999998,6.36114068309804,0.1478040862558786
15.44942,6.373804913882599,0.147576756754561
15.451811999999997,6.381953086495129,0.1474153863824336
15.4542,6.386516366495403,0.1473054900467379
15.456595999999998,6.388286149816342,0.1472398281089789
15.458996,6.391406407577641,0.1471345675189012
15.461379999999998,6.398158779779434,0.146937421232672
15.463759999999995,6.404539064928889,0.1467214934495262
15.466164,6.414970773399422,0.1463891252100427
15.468552,6.421957358884563,0.1460972668705508
15.470931999999998,6.434298620302898,0.1456969035830163
15.473328,6.453065492841064,0.1451659945353018
15.475715999999998,6.470529112767112,0.1446297156408242
15.478095999999995,6.4864099408273255,0.1441052367168722
15.4805,6.498845645902147,0.1436168376281456
15.482888,6.508627623924491,0.1431622939850438
15.485267999999998,6.52404381713375,0.1425821658282051
15.487672,6.538668614410091,0.1420070251528377
15.49006,6.549988058327899,0.141459603908218
15.492435999999998,6.561866580753147,0.1408821654615973
15.49484,6.5761665128053925,0.1402461681182493
15.497228,6.590047135977058,0.1396416522563917
15.499612,6.60513846396222,0.1390054064341826
15.502008,6.619857704895045,0.138350162614444
15.504392,6.633645780268091,0.1377080365033145
15.506776,6.645711294148442,0.1370857756579345
15.509172,6.651630736162683,0.1365752086617189
15.51156,6.655408307803646,0.1361059199429131
15.513939999999998,6.655833304257834,0.1357088431881389
15.516336,6.655466904779105,0.1353151861242783
15.518724,6.646952332687848,0.1350624996516047
15.521103999999998,6.632291688730479,0.1349172027597162
15.523512,6.622566411825724,0.1346928013071078
15.525896,6.614703466040523,0.1344435018712592
15.528275999999998,6.6108447217481565,0.1341285783490512
15.530676,6.607125747082652,0.1338049638803441
15.533064,6.599123031670593,0.1335621316767401
15.535443999999998,6.590189150698755,0.1333307120530601
15.537847999999997,6.587261571966168,0.1330023309295952
15.540232,6.582471662114023,0.1326981238702878
15.542611999999998,6.576610817075241,0.1324140795149137
15.545012,6.5651629786777885,0.1322003851592574
15.5474,6.554506536213255,0.131982300883477
15.549779999999998,6.540637288188804,0.1318226867881864
15.552176,6.526116413858298,0.1316581466521493
15.554564,6.509313899527652,0.1315411394545228
15.556947999999998,6.4962360474361205,0.131375817813811
15.559344,6.486091461650783,0.1311660009827146
15.561728,6.476226415119168,0.1309392854244213
15.564111999999998,6.465942059706971,0.1307360084316918
15.566508,6.458730740227829,0.1304788235247781
15.568891999999998,6.451519420748689,0.1302201361686824
15.571288,6.435228763097241,0.1301136082876693
15.609531999999998,6.18120962720922,0.1300535951662149
15.611919999999998,6.175205220827838,0.1300201489287727
15.6143,6.174648038178267,0.1299236760507889
15.616695999999996,6.180748784074003,0.1297369336463078
15.619079999999997,6.195649328888326,0.1294197260579057
15.62146,6.210410104075788,0.1291100716006957
15.623856,6.222237612957054,0.1288452632797458
15.626244,6.232994186651682,0.1286003970313921
15.628624,6.2496172929587015,0.1282710673413602
15.63102,6.2679629607584175,0.1279293224669716
15.633408,6.287659102998491,0.1275485206307227
15.635787999999998,6.305353144492148,0.1271954715186342
15.638188,6.321836481172308,0.1268699275813387
15.640572,6.336969343412107,0.1265819856441606
15.642955999999998,6.354383845652044,0.1262483098267814
15.645352,6.376873484571453,0.1258351657971065
15.64774,6.401225454610419,0.1254010836317063
15.650119999999998,6.426368820582304,0.1249673429306798
15.65252,6.451092877673607,0.1245583260122548
15.654908,6.475025538831993,0.1241567475251339
15.657304,6.501751696669712,0.1237226161872799
15.659699999999996,6.5234027178279606,0.1233697064641606
15.662091999999998,6.540258141560456,0.1230827376902211
15.664472,6.555111464546535,0.122830090634297
15.666875999999998,6.56596058603978,0.1226386708270162
15.669263999999998,6.578532269025722,0.1224340930493257
15.671643999999995,6.591895347944582,0.1222264425198757
15.674039999999998,6.606841218729278,0.1220132421735408
15.676427999999998,6.616991492088222,0.1218623270132823
15.678808,6.623137563954333,0.1217686900963039
15.681203999999996,6.633008298059558,0.1216342634607171
15.683591999999996,6.650887435150448,0.1213877624934853
15.685972,6.6711879818683375,0.1210904707281029
15.688371999999998,6.694701334146142,0.1207421399966491
15.690759999999996,6.716864211983587,0.1204302215398033
15.69314,6.736233593141698,0.1201529358367574
15.695535999999995,6.75509111762061,0.1198657466525665
15.69792,6.774228181353244,0.1195668675180325
15.700304,6.793784553966457,0.1192459897396693
15.7027,6.811338825833255,0.1189524949757524
15.705088,6.823306104341382,0.1187153765470625
15.707468,6.843281785835178,0.1183751424341806
15.709864,6.86539933770225,0.1180017607054757
15.712252,6.88286106177043,0.1176755797402961
15.714636,6.900322785838612,0.1173499069481257
15.717032,6.917132883600733,0.1170201016120672
15.71942,6.932360189497019,0.1166935289420231
15.721815999999995,6.948286343527605,0.1163322319507158
15.724211999999998,6.963281331998413,0.1159786885291207
15.726603999999998,6.982839600469496,0.115544520459618
15.728983999999995,6.9997441418881055,0.1151341924852354
15.731379999999998,7.011853085880961,0.1147815052004734
15.733763999999995,7.02289109468718,0.1144466005518047
15.736144,7.029273275694505,0.1141574267874689
15.738547999999998,7.035143600022634,0.1138564058358996
15.740935999999998,7.037940888417708,0.1135959582203312
15.743316,7.037944680133446,0.1133619300553012
15.74572,7.033432413677153,0.1131643414442108
15.748103999999998,7.028128751287942,0.1129680532674056
15.750484,7.02389602408537,0.1127556706172065
15.752888,7.027811469495324,0.1124384385006913
15.755276,7.022555028934357,0.1122008906205821
15.757655999999995,7.0157157965075525,0.1119660136474575
15.760051999999998,7.01516240557372,0.1116454385667748
15.762439999999998,7.012095057214271,0.1113348259503493
15.764819999999997,7.009447017735404,0.111003215519058
15.767215999999998,7.006659208629678,0.1106771891976561
15.769603999999998,7.0018692987775335,0.1103750838352635
15.771984,7.000152424858446,0.1100337079025595
15.774383999999998,6.994012040565941,0.1097607917596543
15.776771999999998,6.98722002996738,0.1094815688033339
15.779152,6.978705457876123,0.1092109229120693
15.781547999999995,6.96711784985181,0.1089782129924048
15.783932,6.955530241827497,0.1087445132573714
15.786316,6.944082403430046,0.1085031932775452
15.788719999999998,6.937058075406008,0.1081936121550967
15.791103999999995,6.928823042568471,0.1079047777972796
15.793484,6.921379405663852,0.1076133075915822
15.795887999999998,6.916869035065428,0.1072904955057395
15.798275999999998,6.909704937414529,0.1069838371568734
15.800656,6.897465703084158,0.1067393678255521
15.803051999999996,6.885738325432985,0.1065066689796463
15.805439999999995,6.873451869274371,0.1063021050617906
15.80782,6.853808636436148,0.106196288515545
15.810215999999995,6.8368191306504,0.1060728826997772
15.8126,6.8192705463572105,0.1059773409601029
15.814995999999995,6.804934767623937,0.1058356439031228
15.817391999999998,6.7921817807565,0.1056920337910013
15.819775999999996,6.778637397956145,0.1055483868105155
15.82216,6.770447691088982,0.105330046812091
15.824555999999998,6.759836574594823,0.105154846995312
15.826939999999995,6.750948019593357,0.1049707181900006
15.829324,6.746343205338448,0.1047264270344688
15.831719999999995,6.744671657389733,0.1044515869388489
15.834104,6.740858239067741,0.1042059658219144
15.836503999999998,6.731829914439416,0.1040269195201172
15.8389,6.727736956863704,0.1037951497816544
15.841288,6.728439596713743,0.1035188976880677
15.843667999999996,6.726069200630728,0.1032799607170932
15.846063999999998,6.727283697159964,0.1030179682144856
15.848451999999998,6.727567028129424,0.1027625650956594
15.850831999999995,6.732785726151494,0.1024556474414253
15.853231999999998,6.741356999360342,0.102099108131685
15.855619999999998,6.7548636396218,0.1016898012104674
15.857999999999995,6.771163776562594,0.1012615830783483
15.860395999999998,6.787603683130247,0.1008270368448126
15.862783999999998,6.803764050444181,0.1004097038607633
15.865164,6.816339525145862,0.1000132765066839
15.867563999999998,6.830637561340239,0.0996125804173944
15.869951999999998,6.839860460855142,0.0992699477711172
15.872332,6.853227331489741,0.0988778102702714
15.874727999999998,6.867665137310977,0.0984735372638624
15.877115999999996,6.881032007945577,0.0980853092532377
15.8795,6.894538648207036,0.0976929583914401
15.881895999999998,6.91097855477469,0.0972741422717392
15.884283999999996,6.932633367648676,0.0967953491824318
15.886679999999998,6.953357014962884,0.0963274719248606
15.889076,6.968353899291562,0.0959066259153152
15.891464,6.985352884366656,0.0954673229448071
15.893843999999998,7.001420703881973,0.0950361123242384
15.896248,7.021492724890123,0.0945676579251285
15.898636,7.037560544405439,0.0941388718276127
15.901015999999998,7.051626263174338,0.09373217719381
15.903412,7.065971521196959,0.0933146734299208
15.9058,7.07486955548777,0.0929274050308245
15.908179999999998,7.084838524965219,0.0925289533780657
15.91058,7.093736559256029,0.0921441333352435
15.912968,7.103425989479757,0.0917576676590042
15.915347999999998,7.107109117464235,0.091426037625236
15.917748,7.111304102127911,0.0911073498523575
15.920132,7.115359317164726,0.0907967912031226
15.922515999999998,7.120485467388179,0.090475874283654
15.924912,7.125332078357912,0.090168679694062
15.9273,7.127757279700649,0.0898997290248599
15.929679999999998,7.128040610670108,0.0896555407735183
15.932084,7.121898330519736,0.0894842605974782
15.934468,7.112683014436309,0.089342679731327
15.936847999999998,7.110265396525049,0.0891491564752868
15.939248,7.103703807494096,0.088997045594105
15.941636,7.098073384022922,0.0888395118451963
15.944015999999998,7.089230154991832,0.0887178938165836
15.946416,7.085322293013354,0.0885563799323775
15.9488,7.083276762154432,0.088384707686122
15.951183999999998,7.0788098216685125,0.0882495277275207
15.953588,7.078719169727766,0.0881012183504942
15.955976,7.0763468777868805,0.0879827949099913
15.958355999999998,7.074114355472855,0.0878578893179346
15.960752,7.078539761704138,0.0876915372974484
15.96314,7.088831700547812,0.0874814447319922
15.965523999999998,7.10340738013804,0.0872263781910006
15.96792,7.114910023795213,0.0869992377243457
15.970308,7.119987056332554,0.0868406117590655
15.972687999999998,7.126926419989452,0.0866726471629906
15.975084,7.136007654019626,0.086482067925035
15.977472,7.1478823847291375,0.0862772098024972
15.979851999999998,7.165763417677898,0.0860227100453018
15.982256,7.190302379171967,0.0857294238948915
15.984644,7.21162853510612,0.0854736482706103
15.987023999999998,7.238681454025805,0.0851829897191755
15.98942,7.2626613370124335,0.0849194445108733
15.991803999999998,7.28757238555884,0.0846511412882586
15.994187999999998,7.308479232612414,0.0844164536308916
15.996584,7.326173274106071,0.0842158221087213
15.998971999999998,7.3469403515327825,0.0839894222674146
16.001368,7.366776263399718,0.0837693101698578
16.003763999999997,7.391827081572985,0.0835036902632717
16.006152,7.418740230865808,0.0832311357705907
16.008532,7.44127709161346,0.0829722675112926
16.010931999999997,7.463813952361113,0.0827161355873119
16.01332,7.485419647548986,0.0824677709125205
16.0157,7.51424234978961,0.0821628739225963
16.018096,7.548140188709706,0.0818171057589688
16.020487999999997,7.581386401323742,0.081466581052083
16.022868,7.61570354912442,0.0811094816450854
16.025264,7.6470874306189,0.0807713672696713
16.027652,7.6792627080463,0.0804390007121629
16.030032,7.703848891368611,0.0801457595609548
16.032432,7.725501808384728,0.0798698480277751
16.03482,7.7446407679752305,0.0795958683115116
16.0372,7.768994633872066,0.0792807455877711
16.0396,7.795210830888456,0.0789595699956529
16.041988,7.823289359024405,0.0786314033317622
16.044368,7.850576491227435,0.0782998359245139
16.046768,7.873999191564491,0.0779898812455078
16.049156,7.895699330408851,0.0776822215362603
16.05154,7.908320131080907,0.0774371492455806
16.053936,7.922011866939599,0.077185135027939
16.05632,7.932211257984656,0.076972278577701
16.058699999999998,7.939477382723517,0.0767765680271655
16.061103999999997,7.941528601156047,0.0766217262190523
16.063488,7.934640251043131,0.0765219521404194
16.065868,7.928031440183936,0.0764107402326168
16.068264,7.916347492645268,0.0763337104208843
16.070652,7.900519573986905,0.076287478353267
16.073036,7.889254935328816,0.0761927081224979
16.075439999999997,7.876547274431753,0.0760874318922268
16.077828,7.867704045400663,0.0759628923488347
16.080208,7.861002686742851,0.0758200337202372
16.082604,7.856163659204594,0.075670830442398
16.084992,7.847320430173504,0.0755459316412645
16.087372,7.836894409276577,0.0754161173653796
16.089768,7.824745826886954,0.0752867652249294
16.092156,7.815670280430387,0.0751365193467033
16.094535999999998,7.8095280002800145,0.074971144283945
16.096936,7.80538782087606,0.0747939868713278
16.09932,7.807253943711355,0.0745807064762915
16.101716,7.804184699494037,0.0743943212783177
16.104111999999997,7.8103345630758865,0.0741481320804199
16.106499999999997,7.817415592217515,0.0738988189169665
16.108884,7.8287803621056975,0.0736146620862997
16.111279999999997,7.843869794232991,0.0733172275341074
16.113667999999997,7.859750622293204,0.0730244638297291
16.116048,7.881777522219528,0.0726914422341672
16.118444,7.909019328452183,0.0723227640865697
16.120832,7.931697854684566,0.0720015832478002
16.123216,7.954236611290087,0.0716883599513939
16.125611999999997,7.973702331962554,0.0713945623607738
16.128,7.99330782226188,0.0710961597503067
16.13038,8.006907010321955,0.0708305332090468
16.132776,8.022228759874729,0.0705654471338472
16.135164,8.037410739800642,0.0703066539111495
16.137559999999997,8.051382014913054,0.0700608722452078
16.139955999999998,8.06414258521197,0.0698296913811267
16.142339999999997,8.077042925137745,0.0695942690670816
16.144724,8.08887232987688,0.0693678573617574
16.147119999999997,8.100841504242876,0.0691371787521696
16.149507999999997,8.112950448235733,0.068900154191752
16.151884,8.117050989242923,0.0687064865233523
16.154283999999997,8.12185037838441,0.0684860746034756
16.156671999999997,8.12227347898073,0.0682663366339688
16.159052,8.122324492524713,0.0680271739863026
16.161448,8.11441432491127,0.0677912469018077
16.163836,8.097192501700045,0.0675764202207046
16.166231999999997,8.066794591025062,0.0673965938244229
16.168628,8.027923642513457,0.0672033569981025
