Time,Force,Position
18.563568,5.775492836069874,0.1666120660295038
18.565964,5.823214597044045,0.1656945943930577
18.568352,5.873450315443832,0.1647576642463293
18.570732,5.9244774297765375,0.1638160234106441
18.573136,5.972012199295606,0.1629890896296429
18.575524,6.02778768922582,0.1620144259387171
18.577904,6.087287841395147,0.1609896130897994
18.5803,6.141293548004423,0.1601250285634596
18.582688,6.19450785868078,0.1592834927169031
18.585068,6.245160990103278,0.1585266997504423
18.587468,6.297024826339276,0.1577473932562668
18.589852,6.3514498418291305,0.1568986947135666
18.592236,6.4041522958262895,0.1560836857163391
18.594632,6.453130087584335,0.1553468058772797
18.59702,6.501316483409464,0.1546321684239213
18.599416,6.548059856995616,0.1539334039521813
18.601812,6.591637646850093,0.1532687139627342
18.6042,6.629907982599621,0.1526847932617855
18.606584,6.670879267229868,0.1520214446726855
18.60898,6.7093365944344985,0.1513989341918653
18.611368,6.742858554586518,0.1508709584528958
18.613748,6.775728888432481,0.15035214209183
18.616144,6.807016430412607,0.1498547307852338
18.618532,6.84058561239287,0.149311800054522
18.620916,6.87508595993291,0.1487553195535231
18.623312,6.907723976353395,0.1482386598031828
18.6257,6.934495460161489,0.147823926204649
18.62808,6.961826022477024,0.1473766815692069
18.630476,6.98808564960592,0.146954452216846
18.632864,7.019839722294869,0.1464246426856056
18.635244,7.046658427931206,0.1459775126395681
18.637648,7.072266428754045,0.1455649873592124
18.640032,7.098014199203744,0.1451471306686953
18.642416,7.122039408160746,0.1447469225099555
18.64482,7.142479724505495,0.1443923772144166
18.647204,7.16082539230521,0.1440398600319966
18.649588,7.180381764918424,0.1436613554167253
18.651984,7.19928651122558,0.1432782352219532
18.654372,7.214606364920483,0.1429392323028958
18.656752,7.224618764510437,0.1426599972879747
18.659152,7.235609551488412,0.142326506304957
18.66154,7.242224049921216,0.1420420317464815
18.66392,7.245393425368626,0.1417928035962045
18.666316,7.243906973017145,0.141606038152326
18.668704,7.240325872120632,0.1414181168767198
18.671088,7.228504050812972,0.141333349079899
18.673484,7.216729451333555,0.1412072531794681
18.675872,7.204442995174942,0.1410701551138624
18.678252,7.188851185657796,0.1409594652469234
18.680648,7.165810051662422,0.1409458064743315
18.683036,7.147611736921044,0.1408211414726734
18.68542,7.12731877363463,0.1406939431988211
18.687816,7.1045118529226015,0.1405872686847073
18.690204,7.082403780344876,0.1404420894598869
18.692588,7.0616461822075065,0.1402612857824067
18.694984,7.037675778510224,0.1401389728434874
18.697372,7.012122582947103,0.1400236604039506
18.699756,6.989921962570758,0.1398404194437387
18.702152,6.971865313314108,0.139585354969415
18.704544,6.960885901483347,0.1392165051956942
18.706924,6.949906489652588,0.1388466101550223
18.70932,6.939066847448687,0.1384675488036405
18.711708,6.928227205244787,0.1380868727509469
18.714104,6.917667102294606,0.1376893742128979
18.7165,6.909248869717703,0.137252268476788
18.718888,6.909770205686246,0.1366782266096167
18.721268,6.911874333520624,0.1360957796203775
18.723664,6.911976360608586,0.1355420179107276
18.726052,6.912078387696546,0.1349844458924393
18.728432,6.913251349971146,0.1344043104709306
18.730836,6.909861032245471,0.1339184137816194
18.733224,6.903118139333023,0.1334963194464078
18.735604,6.895304311233936,0.1330916846749613
18.738,6.889213044627542,0.1326711670967482
18.740388,6.879908972461236,0.1323081829540599
18.742768,6.878054224773157,0.1318508402099294
18.745164,6.875780168204497,0.1314161660520152
18.747552,6.873086802755256,0.1310063532277127
18.749936,6.867972027679019,0.1306515147888715
18.752332,6.859085368535424,0.1303849687389779
18.75472,6.850431026817304,0.1301448673732876
18.7571,6.844011103271081,0.1299012873044305
18.759496,6.839825597896752,0.1296544389246739
18.761884,6.840016381067593,0.1293680143408984
18.76428,6.840579251290772,0.1291017212687817
18.766676,6.837929315954037,0.1288915095193727
18.769064,6.833928906176942,0.1287141770337098
18.771444,6.83258222345232,0.1285117549090319
18.77384,6.83724184296695,0.1282237868054902
18.776228,6.844555189534055,0.1279120291348535
18.778612,6.8550813416610765,0.1275466222293951
18.781008,6.872684731213985,0.1270786765791561
18.783396,6.893081617446229,0.1265776531920681
18.785776,6.911336633305198,0.1261143534059872
18.78818,6.933735620283859,0.1255865438645101
18.790564,6.952689484277127,0.1250911597448732
18.792948,6.969501477897119,0.1246281537110304
18.795344,6.981238334837637,0.1242375938650511
18.797732,6.993114961405016,0.1238406072079957
18.800112,7.004619500920058,0.1234242052967432
18.802508,7.013610083009485,0.123022055407116
18.804896,7.021017873233077,0.1226262440942569
18.80728,7.025911706031053,0.1222460009084332
18.809676,7.026941106963057,0.1219156467551612
18.81206,7.027039342335282,0.1215961424603011
18.814444,7.0279289736404245,0.1212747838954445
18.81684,7.030960475318846,0.1209190813315044
18.819228,7.0390671136767375,0.1204960855201928
18.821608,7.043681407220994,0.1201412224601567
18.824008,7.046153830391972,0.1198203503208953
18.826392,7.048346714309231,0.1195152921048975
18.828792,7.047326792666576,0.1192612668824504
18.831188,7.053384108449807,0.1189185794250815
18.833576,7.062374690539234,0.118543212586839
18.83596,7.072156668561579,0.1181688989203603
18.838356,7.082450503263123,0.1178080995456582
18.840744,7.101823676136972,0.117337869820618
18.843124,7.125201050503653,0.1168161733845549
18.84552,7.148159115989756,0.11631624028098
18.847908,7.173491369274611,0.1158137045231466
18.850292,7.207763191104914,0.1152129280573002
18.852688,7.243478035174193,0.1146171124960672
18.855076,7.282917541482584,0.1139893562983076
18.85746,7.323008674097035,0.1133666069732225
18.859856,7.361097705965067,0.1127666068373154
18.862244,7.394251370780488,0.1122201110157558
18.864624,7.426194330782409,0.1116985017133546
18.867024,7.448918182985166,0.1112954235487348
18.869412,7.473504366307478,0.1108779739195611
18.871792,7.500884046309125,0.1104373218490848
18.874192,7.5271927911241345,0.1100134788663003
18.876576,7.553082227058562,0.1096102933631274
18.87896,7.568681620007185,0.1093388284969051
18.881356,7.58307030814231,0.1090908821955896
18.883748,7.594246190717518,0.1088873858011553
18.886128,7.605701612546448,0.1086719219695498
18.888524,7.609940027322628,0.1085451229504187
18.890912,7.61911380915142,0.1083694032725288
18.893296,7.628567130233932,0.1081809051871159
18.895692,7.63508718501025,0.1080215546857929
18.89808,7.636112794226515,0.1079390631952234
18.90046,7.634624446017164,0.1078653474432487
18.90286,7.6323447018748976,0.1077926121646915
18.905248,7.634348698479183,0.1076667258649137
18.907628,7.642079458068999,0.1074932143148997
18.910032,7.655676750271205,0.1072647939754865
18.91242,7.672486848033328,0.1069987711537633
18.9148,7.696234413594479,0.106665192407636
18.9172,7.717328252103155,0.1063473218594597
18.919588,7.7377704643057745,0.1060263411091394
18.921968,7.757281510948614,0.1057120282111899
18.924364,7.781355837591728,0.1053367145472496
18.926756,7.809713904981398,0.1049088558900407
18.929136,7.836209641251511,0.1044950085208144
18.931532,7.8636365430814,0.1040737234865999
18.93392,7.884917373045179,0.1037156472381227
18.936304,7.905406807076041,0.1033564823685554
18.9387,7.92175226998721,0.1030472841778892
18.941092,7.939168668085016,0.1027267330072717
18.943472,7.962079511742874,0.1023395052341031
18.945872,7.982336628348259,0.1019652369220604
18.94826,8.005387241632977,0.1015717933895922
18.950636,8.024573423051724,0.1012103594037629
18.95304,8.040686568537414,0.1008843417555793
18.955428,8.050281555104656,0.1006035671046543
18.957808,8.060016311298758,0.1003189653860444
18.960212,8.062534060440111,0.1001077448817605
18.962596,8.063329248088767,0.0999039936482517
18.96498,8.065986766856982,0.0996883351481918
18.96738,8.067713120065417,0.0994792639596676
18.969768,8.07065017808735,0.0992522306991609
18.972152,8.064507897936977,0.0991084340248121
18.974548,8.05422164666691,0.0990059983226759
18.976932,8.044075165023704,0.0988973095379046
18.979316,8.031554495581744,0.0987881261305446
18.98172,8.024248732446116,0.0986244197505812
18.984108,8.020155774870403,0.0984243825926491
18.986488,8.012477924682438,0.0982418266359882
18.988884,8.001727038561416,0.0980889989370334
18.991272,7.982408670947289,0.0980317564146113
18.993652,7.965092404079578,0.0979563275563023
18.996056,7.94605357571917,0.0978860515115762
18.998444,7.929528704784376,0.0978100530198722
19.000824,7.9052749701176355,0.0977941888419332
19.003224,7.883954501757089,0.0977537828792752
19.005608,7.858769601530569,0.0977425066057303
19.007992,7.838008211677463,0.0976767146118445
19.010392,7.815384490704802,0.0976218775137702
19.012776,7.791969373799222,0.0975658662817385
19.01516,7.768414487266783,0.097515091521791
19.017556,7.744580061480623,0.0974758010273257
19.019944,7.726891707560573,0.0973769278658982
19.022324,7.712416159200439,0.0972418352966836
19.02472,7.697009445280526,0.097112066403184
19.027108,7.685187623972867,0.0969645567237503
19.029488,7.675367903411625,0.096799152903255
19.031888,7.661264442103828,0.09668076265735
19.034272,7.64809214635581,0.0965560479968802
19.036652,7.640926152847044,0.0963784143930343
19.039056,7.6366008778458525,0.0961449886358567
19.041444,7.631623976538606,0.0959047427632885
19.043828,7.628369636724054,0.0956593109648151
19.046224,7.629678576909778,0.0953560851466561
19.048608,7.638716380827447,0.0949932111490541
19.050992,7.647614415118258,0.0946371768348403
19.053388,7.659585485342125,0.0942524365646961
19.055776,7.67141678593913,0.0938749814362624
19.058156,7.684179252095913,0.0934924756775336
19.060552,7.693868682319641,0.0931377426911877
19.062944,7.700624846237174,0.0928045921869946
19.065324,7.703516578288736,0.0924980847647838
19.06772,7.703055735153519,0.0922327986997831
19.070108,7.701523956831664,0.0919790852415192
19.072492,7.703856610375783,0.0916975992751475
19.074888,7.706189263919901,0.0914171118066564
19.077272,7.706380047090743,0.0911606025027589
19.079672,7.711506197314196,0.0908651154335517
19.082068,7.722359110523181,0.0905333351746762
19.084456,7.725343390373357,0.0902621324085678
19.086836,7.730701858022289,0.0899938681923202
19.089232,7.736432412723557,0.0897447806418585
19.091624,7.741231801865048,0.0895014771259071
19.094004,7.737883018394011,0.0893291505923511
19.0964,7.734813774176694,0.08914519878385
19.098788,7.732955234772876,0.0889446312928929
19.101172,7.728815055368921,0.0887718129133341
19.103572,7.722393235964828,0.0886262956836748
19.10596,7.716762812493653,0.08848197393552
19.10834,7.715136590515312,0.088306200737101
19.110736,7.716583404470027,0.0881035384725506
19.113124,7.72524722547749,0.0878375356554462
19.115504,7.737263621671731,0.0875333899038614
19.117904,7.751421888239248,0.0872087519085201
19.120288,7.764788758873848,0.0868853740461076
19.122672,7.777504003202388,0.0865561310047376
19.125068,7.78914831234429,0.0862373568411229
19.127452,7.799070059993494,0.0859232680897642
19.129848,7.804335979843809,0.0856332468760355
19.132244,7.81039329562704,0.0853421315542523
19.134632,7.817381776970052,0.0850481452997037
19.137012,7.824929336820502,0.0847310888011166
19.139412,7.832756435924673,0.0844029897506772
19.141796,7.844308197267958,0.0840559665942093
19.14418,7.854789023424606,0.0837206181012703
19.146576,7.859915173648059,0.0834351961861872
19.148964,7.866112259058152,0.0831395132165215
19.151344,7.87552215002816,0.0828132830226716
19.15374,7.880927839505335,0.0825153125143728
19.156128,7.884331428236092,0.0822321594839069
19.158508,7.888666182526627,0.0819456469636567
19.160904,7.890719296817025,0.0816867812963759
19.163292,7.892492871853704,0.0814404955772812
19.165688,7.892776202823164,0.0812218073038122
19.168084,7.891709059352265,0.0810247771891092
19.170472,7.891433311814281,0.0808300328362212
19.172852,7.892508038716659,0.0806141885493008
19.175248,7.891720434499479,0.0804057221122452
19.177636,7.889861895095661,0.0802062316818693
19.18002,7.89643106755809,0.0799374572368052
19.182416,7.900486282594906,0.0796692419825668
19.184804,7.903330792818221,0.0794161853717743
19.187184,7.907897864534235,0.0791627103016593
19.189584,7.913815410690607,0.0788894528531924
19.191972,7.91824271277976,0.0786421676440437
19.194352,7.93202889229494,0.0783247171898943
19.196756,7.945675302183258,0.0780133566811294
19.199144,7.959321712071576,0.0777037340284665
19.201524,7.977112093079589,0.0773632377942448
19.20392,7.995693870020521,0.0770250404088399
19.206308,8.013064942147954,0.0767026379301902
19.208688,8.026571582409412,0.0763988985353183
19.211088,8.03421169005848,0.0761252648256399
19.213476,8.041339941028351,0.0758380345207272
19.215856,8.046605860878666,0.0755569703606781
19.218252,8.050661075915482,0.0752911684106544
19.22064,8.054157212444855,0.0750481452042137
19.22302,8.062309176773121,0.0747896612220568
19.22542,8.073114868153864,0.074527088638412
19.227808,8.076284243601272,0.0743329222885134
19.230188,8.07982570610102,0.0741578830344095
19.232584,8.086300434906965,0.073968515934012
19.234972,8.089702127779855,0.0737999389143279
19.237368,8.095897317332076,0.0736239176391373
19.239764,8.104653686138157,0.073414810910319
19.242152,8.108055379011047,0.0732492093659023
19.244536,8.112667776697434,0.0730703405489337
19.246932,8.119282275130237,0.072881868320082
19.24932,8.126827939122819,0.0726918448459655
19.2517,8.137446639048457,0.072484225578968
19.2541,8.148205108600955,0.072271595165358
19.256484,8.162455922967089,0.0720243924511856
19.258868,8.180199082146858,0.0717408703714398
19.261264,8.198501319834069,0.0714367893751146
19.263652,8.212567038602966,0.0711266860163096
19.266036,8.2200220506548,0.0708025721234651
19.26844,8.219004024870014,0.0704680828316594
19.270828,8.206439925315546,0.0701426063812998
19.273208,8.180607190498709,0.069823128638551
19.275604,8.145789561166053,0.0694756693901916
19.277992,8.101055871757795,0.069102097298893
19.280372,8.038909575967471,0.068760074178824
19.282768,7.962843018608716,0.0684110085001601
19.285156,7.863776861509224,0.0681088673430924
19.287536,7.745575536534966,0.0678364257917194
