Time,Force,Position
14.185568,2.5761777272706112,0.1738983455984451
14.187971999999998,2.724244251804092,0.1720834858292142
14.190359999999998,2.8727792029042654,0.169830230969381
14.192744,3.0141934864660453,0.1677225578870947
14.19514,3.1401991602500434,0.1663760006080172
14.197527999999998,3.2479101797783083,0.1656708228268794
14.199912,3.3490596102756203,0.16474432197916
14.202308,3.4444860695031405,0.1635386820762969
14.204695999999998,3.526693011154399,0.1625116952766095
14.20708,3.5907450681767847,0.1618087268029357
14.209476,3.6477236794890193,0.1609134574608439
14.211863999999998,3.689340902851716,0.1602173619788931
14.214244,3.7234181497954375,0.1595069830057581
14.216639999999998,3.7497684288650817,0.1588679645721355
14.219027999999998,3.766901495993429,0.158380989572218
14.221408,3.7851999419649007,0.1576831329554847
14.223812,3.794094184539973,0.1572164489514252
14.2262,3.7966572596517,0.1568571038213388
14.22858,3.7948912680464986,0.1565301570150938
14.230984,3.7877252745377312,0.1562809097342775
14.233372,3.7773936972972906,0.1560825249140497
14.235751999999998,3.771625400057125,0.1556848602103659
14.238156,3.7587798653910713,0.1555324460955084
14.24054,3.748448288150631,0.1553282207386144
14.302656,3.5141347737920308,0.1550592255666937
14.305044,3.5074787411045905,0.1550388074796634
14.307427999999998,3.505990392895241,0.1548998752687882
14.309824,3.506876232484645,0.1547230636657416
14.312212,3.511998590992361,0.1544519659679073
14.314592,3.5156307054328564,0.1542705350966985
14.316987999999998,3.5217767772989674,0.1540370289379918
14.328924,3.527456318456254,0.1539318660072134
14.331328,3.533974477374703,0.1537460952304771
14.333716,3.542075428158987,0.153537776373841
14.336096,3.559115947488717,0.1530188809840479
14.338492,3.574294135698891,0.1525496676642824
14.34088,3.589332554282204,0.1521015210694661
14.343264,3.6051623687984353,0.1516466574457492
14.34566,3.6231340536879446,0.1511091651129178
14.348043999999998,3.6372413067114793,0.1507005792232604
14.350424,3.648974371936261,0.1503240059613928
14.352823999999998,3.660986976414761,0.1499220374335925
14.355211999999998,3.6746295945873415,0.1494316557694404
14.357608,3.687900125707584,0.1489047857498382
14.360004,3.7009383394023496,0.1483378747784638
14.362392,3.7198430857095057,0.1475981990900961
14.364772,3.736094104964188,0.1469215912783177
14.367168,3.7543472249652856,0.1461803229065672
14.369556,3.76845637384669,0.1455754709337962
14.37194,3.77870109086212,0.1450849668187369
14.374336,3.789457664556749,0.1446125468701146
14.376724,3.7974207415720422,0.144207846370988
14.379103999999998,3.7990979770943656,0.1440302011601339
14.381504,3.801054751870408,0.1438242467797605
14.383888,3.7994266340341984,0.1437030588164531
14.386268,3.80287365287746,0.1434177376969628
14.388668,3.805529275787804,0.1431431196104381
14.391051999999998,3.808976294631066,0.142861937552611
14.393436,3.813074939780386,0.1425890541404674
14.39584,3.8201068512359018,0.1422349061283365
14.398228,3.8305838856768095,0.1418181421420616
14.400607999999998,3.8390588193713007,0.1414625607080116
14.403012,3.8452521130656554,0.1412001754592703
14.4054,3.8561012345589,0.140833759853066
14.40778,3.863178471984789,0.1406273665316609
14.410176,3.865460111984927,0.140544073708286
14.412564,3.868393378291122,0.1404662427169754
14.414943999999998,3.86946431347776,0.1404312355528783
14.417344,3.8764017812767895,0.1402399004370723
14.419728,3.887063911314932,0.1399624630016182
14.422111999999998,3.900799077286129,0.1395979104667386
14.424516,3.9206803151234375,0.139051303377179
14.4269,3.9448452937073,0.1383626341766731
14.42928,3.966728632291025,0.1377568003026349
14.431684,3.990986158673505,0.1371309595423951
14.434072,4.0108201746825705,0.1366634826633171
14.436452,4.03330791774411,0.1361541632429907
14.438856,4.0537935600592325,0.1357030952149181
14.44124,4.071485705695021,0.1353155861313131
14.44362,4.085825276144033,0.1350435433782514
14.44602,4.098162745846628,0.1348270427874901
14.486628,4.2274756688470285,0.1347810050020288
14.489028,4.237763815974963,0.1347041853781911
14.491412,4.246329401610203,0.1346486569415436
14.493792,4.259178727991996,0.1344743362717382
14.496192,4.276591334374063,0.1341598084875128
14.498576,4.294283480009852,0.1338157902588122
14.50096,4.315048661578695,0.1333932048462471
14.503364,4.333020346468204,0.133022345411214
14.505748,4.3552757721042665,0.1325332990341996
14.508128,4.377670967367189,0.1320368707351862
14.510532,4.401835945951053,0.1314626080480297
14.51292,4.426140694161775,0.1308876040393026
14.5153,4.44858311125294,0.1303470344854287
14.517699999999998,4.470234132411188,0.1298091941774172
14.520088,4.4903023617036,0.1292837236398862
14.522468,4.506506159130038,0.1288394038499073
14.524864,4.523501352489394,0.1283918756077717
14.527252,4.54021700659503,0.1279708354045537
14.529632,4.5560014951408885,0.1275720205331118
14.532032,4.573648314806301,0.1271399284488956
14.53442,4.591714443352297,0.126672515372943
14.5368,4.6039140392859,0.1263327737359468
14.5392,4.621980167831897,0.1258718164403701
14.541584,4.634831390071559,0.1255428530564369
14.543968,4.644330037124446,0.1253121608765386
14.546371999999998,4.656901720110387,0.1250129634853336
14.548759999999998,4.667890611230491,0.1247253369273824
14.551144,4.690100710896181,0.1242049829505063
14.553539999999998,4.707235673882397,0.1237941507802941
14.555927999999998,4.725301802428392,0.1233736717774585
14.558308,4.738944420600972,0.1230688274078471
14.560704,4.748303298026998,0.1228644483176119
14.563088,4.761526607318999,0.1225939072740969
14.565472,4.777543413290334,0.1222815361583746
14.567868,4.795003241500645,0.121972984604877
14.570256,4.814325400830512,0.1216334897274935
14.572636,4.836860365720297,0.1212279411765343
14.575032,4.858743704304022,0.1208167777887397
14.57742,4.87848517251447,0.12045458627792
14.579816,4.898366410351777,0.1200849713712576
14.582211999999998,4.921320684122141,0.1196596949209099
14.584599999999998,4.94627705863892,0.1191961462929661
14.58698,4.969882958715342,0.1187839056121934
14.589375999999998,4.997632829911457,0.118291206253433
14.591764,5.023660139614877,0.1178142512321335
14.594148,5.049827218945156,0.1173354261046136
14.596543999999998,5.0747835934619365,0.1168896718022617
14.598928,5.087587593873356,0.1166767178433493
14.601312,5.103464630217831,0.1164052311418434
14.603716,5.11640840025611,0.1161826545516054
14.606103999999998,5.1324252062274445,0.1159034147723924
14.608488,5.1487215514525,0.1155996997445289
14.610884,5.164366270371498,0.1152950463704166
14.613267999999998,5.179499132611298,0.1149771620423131
14.615652,5.192909433358401,0.1146736177613769
14.618047999999998,5.210463705225198,0.1142972739914488
14.620435999999998,5.223874005972301,0.1140025177376996
14.62282,5.239286407465822,0.1136775336153209
14.625215999999998,5.259913715265674,0.1132605407999405
14.627603999999998,5.278678691945968,0.1128674609041174
14.629988,5.292228762319932,0.1125710140197863
14.632383999999998,5.301262774521865,0.1123202067153845
14.634771999999998,5.312206339671596,0.1119963944443776
14.637152,5.315281271462521,0.1117894376545093
14.639551999999998,5.320777612880443,0.1115230468327207
14.641939999999998,5.32348045761903,0.1112910300531631
14.644324,5.327254237544256,0.1110382361136076
14.646719999999998,5.33223872228298,0.1107526219174293
14.649107999999998,5.3405757822084805,0.1104008035684223
14.651488,5.353056813253675,0.1099800636269019
14.653892,5.360090620567059,0.1096141297510113
14.65628,5.368614671947662,0.1091984480393882
14.658663999999998,5.372203356275653,0.1088557799186101
14.66106,5.370577134297314,0.1086034388136795
14.663448,5.370441156386192,0.1083024273005599
14.665828,5.367511681795734,0.1080361488101698
14.668224,5.362208019406524,0.1077725886249219
14.670616,5.352248529218421,0.1075613723359962
14.672996,5.337633211231427,0.1074016501135253
14.675396,5.324088828431071,0.10722175500577
14.677784,5.314036790444352,0.1069642195206418
14.680167999999998,5.3119931554433,0.1065878076436856
14.682572,5.304874383762776,0.1062899754180633
14.68496,5.306974719881418,0.1058468766513101
14.68734,5.306933185626781,0.1054426785855855
14.689736,5.306751881745286,0.105046527231611
14.692128,5.308852217863927,0.1046055439172737
14.694508,5.314816985848542,0.1041171979851574
14.696904,5.31263358122063,0.1037519121334904
14.699292,5.304583643980326,0.1034619074253047
14.701676,5.302260469725555,0.1031049919370855
14.704072,5.297515885843784,0.1028013981872903
14.70646,5.295704568268209,0.1024585802441669
14.708844,5.3012500273722445,0.1019937592770516
14.71124,5.307586882409196,0.1015310402634496
14.713628,5.3089883703935365,0.1011318246268313
14.716012,5.311832880616854,0.1007386124021531
14.718408,5.318541822706144,0.1002975768633522
14.720796,5.322969124795296,0.0999004906043393
14.72318,5.327396426884449,0.0995041408592145
14.725576,5.3316839593467416,0.0991197871792703
14.727964,5.329825419942924,0.0988289187320341
14.730348,5.329968981285523,0.0985100870990225
14.732744,5.323175074829092,0.0982818622868535
14.735136,5.31838326911908,0.0980267244947774
14.737516,5.316012873036064,0.0977181150713034
14.739912,5.308567340273576,0.0974793655349371
14.7423,5.299259476391531,0.0972579630612164
14.74468,5.294095583629179,0.09697405020403
14.74708,5.292004726799884,0.0966450068350087
14.749468,5.286049438104614,0.0963592172610981
14.751848,5.285029516461958,0.0960124760785371
14.754244,5.282007494072886,0.0956908028628564
14.756632,5.27870593243009,0.095390267173246
14.759016,5.27312273078716,0.095132685327531
14.761412,5.273266292129758,0.094816609579814
14.7638,5.277553824592051,0.0944432119690072
14.76618,5.277697385934649,0.0941276477023213
14.768576,5.281845148770081,0.0937611229436162
14.770964,5.283851041232237,0.0934275262507797
14.773348,5.282364588880756,0.0931623692777494
14.775748,5.284882338022109,0.0928475056668601
14.778136,5.284047511976685,0.0925911482291704
14.780516,5.285866412983737,0.092318350309331
14.782916,5.2875455443639305,0.0920560298722008
14.785304,5.283869999810929,0.0918772853084009
14.787684,5.2839191174970415,0.0916661544610973
14.790084,5.281034968876958,0.0914870684184496
14.792472,5.277871281003155,0.0913260136187986
14.794852,5.27549898906227,0.0911663218803735
14.797248,5.277922294547136,0.0909595426281992
14.799636,5.281556304845502,0.0907302325821267
14.80202,5.289054747009841,0.0904628754900728
14.80442,5.289755491002011,0.0902648118544952
14.806808,5.293669040554097,0.0900191563708126
14.809192,5.294789093426849,0.0897960340563775
14.811588,5.294326354433764,0.0895717386830202
14.813976,5.299869917679929,0.0892803565791762
14.816356,5.305693020179815,0.0889739696464204
14.818756,5.315008467493337,0.0886049352071917
14.821144,5.327444172568156,0.0881450928465073
14.823524,5.335875676150143,0.0877300853253683
14.825924,5.347939294172625,0.0872422056669332
14.828312,5.363075948128163,0.0867219952634366
14.830692,5.374348170217727,0.0862352703631005
14.833092,5.393489025666099,0.0856722132018008
14.83548,5.411186858875495,0.0850986233726948
14.83786,5.432097497644807,0.0844787898207167
14.84026,5.455289776414254,0.0838259753577665
14.842648,5.4766197240641485,0.0831877134389911
14.845028,5.495947570967624,0.0825776781726344
14.847428,5.511410986005126,0.0820050743105576
14.849816,5.525151839549931,0.0814398238335804
14.852196,5.541546420147212,0.0808602642540003
14.854592,5.555007734438296,0.0803093190898873
14.856984,5.566327178356103,0.0797829723942929
14.859364,5.576156378206691,0.0792983578113787
14.861764,5.582260915818166,0.0788391940230591
14.864152,5.585944043802643,0.0784246409044276
14.866536,5.590278798093179,0.0780246104271439
14.868932,5.594706100182331,0.0776701219231713
14.87132,5.598342006338567,0.07730988908512
14.873704,5.605423035480194,0.0769496280634244
14.8761,5.60663753200943,0.0766356813650362
14.878488,5.610785294844864,0.0762976064622163
14.880868,5.610137460254544,0.0759939851479862
14.883268,5.607999381597006,0.075726102457644
14.885656,5.606512929245526,0.075470232080626
14.888036,5.6018136713341296,0.0752526448820614
14.890432,5.597393952676454,0.0750183644956187
14.89282,5.590320506966304,0.074789096296114
14.895204,5.58389868756221,0.0745708705103672
14.8976,5.57654570259834,0.0743564500267412
14.899988,5.56868086095527,0.0741213115898203
14.902368,5.560676249685341,0.0738933605353202
14.904764,5.557886544721745,0.0736113800783113
14.907156,5.550301242332396,0.0733569438555869
14.909536,5.5415052351295495,0.0731217483580272
14.911932,5.530754349008529,0.0728483993235458
14.914324,5.51362507359592,0.0725947280208669
14.916704,5.487603451466109,0.0723554723109343
14.919104,5.459207641537543,0.0720995340587557
14.921492,5.415401325973328,0.0718852091584719
14.923872,5.367126174065324,0.0716199096370276
14.926268,5.304371682081446,0.0713918095755096
14.928656,5.227417389275416,0.0711829072712607
14.93104,5.141617971580428,0.0709187751758987
