Time,Force,Position
15.872436,2.017381865895852,0.1745686486257536
15.874824,2.111081971914936,0.1728698850123782
15.877208,2.192771369313389,0.1719534906472303
15.879604,2.263520993277849,0.1715897065816662
15.881988,2.329756454928147,0.1711588920578128
15.884372,2.388404718331228,0.1708022015180997
15.886768,2.439977640166288,0.1705563028197752
15.889156,2.482612889313772,0.170503015826831
15.891551999999995,2.5207339761470937,0.170312168499308
15.893947999999998,2.553409735106475,0.1700385664706896
15.896335999999998,2.5871583251103645,0.1693657717833672
15.898716,2.611549933546096,0.1690025141815797
15.922611999999996,2.700220228856083,0.168715485958047
15.924999999999995,2.712742794155912,0.1684423707671295
15.92738,2.729269560948575,0.167969446712533
15.929779999999996,2.7432351484873814,0.1676822558806541
15.932167999999995,2.763207038265437,0.1671210325977933
15.934548,2.78653150323027,0.1663780167294406
15.936944,2.812417147448959,0.1654448881030316
15.939332,2.8383027916676484,0.164524654463879
15.941727999999998,2.8663303062596155,0.1635074543816781
15.944124,2.885558021932997,0.162885179612163
15.946507999999998,2.9073469168602357,0.1621036966079534
15.948891999999995,2.926482084734999,0.1614261320019513
15.951287999999998,2.950180532610038,0.1604915251998618
15.953675999999998,2.9750896852985758,0.1594889142692974
15.956056,3.005073974666585,0.1582605282555665
15.958451999999998,3.0354775729151746,0.1569921856468459
15.960839999999996,3.0641586096710687,0.1557723060577403
15.963224,3.0879042793743507,0.1547818049653848
15.965628,3.10820482609224,0.1538759612841349
15.968016,3.127713976877211,0.1529789598731043
15.970399999999998,3.140844738370594,0.1523093899074237
15.972796,3.15239270799814,0.1516853719380108
15.975184,3.16235788575985,0.1510980976871004
15.977567999999998,3.1748842427754185,0.1503604911828362
15.979964,3.180752671245678,0.149874114135092
16.01102,3.084215638434753,0.1496107451592829
16.013403999999998,3.073882165336444,0.1496028224001849
16.0158,3.063968001118715,0.1495416033944431
16.018188,3.05791826876696,0.1493402869981042
16.020571999999998,3.050145974922508,0.1491802101221502
16.027739999999998,3.018029294470568,0.149021794818209
16.032524,2.996710721967891,0.1489945150027094
16.037308,2.974600753532296,0.1489758402707267
16.039696,2.9685510211805406,0.1487682008149657
16.042075999999998,2.9654345551349808,0.1484519154567511
16.044476,2.9643201898358376,0.1480553689417292
16.04686,2.96613909084289,0.1475556514039081
16.049243999999998,2.9727535892756936,0.146888921501986
16.05164,2.9824411236415527,0.1460955882874473
16.054028,2.997064025060024,0.1451058203925274
16.056407999999998,3.009405286478358,0.1442447461976872
16.058804,3.018393972709916,0.1435443880742944
16.061196,3.0243096230084188,0.1429727405372563
16.063575999999998,3.0346015618520927,0.1423043786319026
16.065976,3.042891399949349,0.1417121066940579
16.068364,3.0529037995393025,0.1410855181950092
16.070743999999998,3.0626366598755355,0.1405021036083802
16.073144,3.074231851331325,0.1398465806852979
16.075532,3.085315186107918,0.1391517301540215
16.077911999999998,3.0946759593918127,0.1384993992541957
16.080312,3.104176502302569,0.1378259020152305
16.0827,3.1127458796535468,0.1371872493342626
16.085084,3.1254592281242184,0.1363848294957189
16.08748,3.132445813609359,0.1357827902827098
16.089868,3.139292629467641,0.1351987781312492
16.092252,3.1464189845796424,0.1345827725463478
16.094648,3.1486099726390315,0.1341373795848107
16.09704,3.148659090325144,0.1337816974950145
16.09942,3.147777042451477,0.1334533041261925
16.10182,3.1456842897643127,0.133184927621796
16.104208,3.142520601890509,0.1329581727037228
16.106592,3.142290180322901,0.1326375870284367
16.108988,3.14392208987485,0.1322665229491855
16.11138,3.1368939701350738,0.1321576892423741
16.11376,3.129726080768437,0.1320660772566703
16.118544,3.112689353154446,0.1320322837948025
16.120928,3.108035421213424,0.1318967974785463
16.12332,3.1066868426309338,0.131710613431836
16.218888,2.8421491380473696,0.131609418935308
16.221272,2.8296737945757826,0.1316053972649236
16.223675999999998,2.826277789276502,0.1312950336741551
16.226063999999997,2.823580632111523,0.1309001275474824
16.228448,2.829962813118849,0.1302051525885324
16.230843999999998,2.835274058939537,0.1295614040244699
16.233231999999997,2.8357897073344733,0.1290516432031786
16.235616,2.843103053901578,0.1283486280103654
16.238011999999998,2.8514873356553214,0.1275980250754631
16.240399999999998,2.867880020394732,0.12660759990647
16.242784,2.884552244387863,0.1255654072306491
16.245192,2.905368439500688,0.124372124325489
16.247576,2.923391137934179,0.1232245815767094
16.249959999999998,2.943136397860365,0.1220511694614264
16.252356,2.964604219279248,0.1208524493177419
16.254744,2.988725767750606,0.1195828862627919
16.257123999999997,3.013918251408602,0.1182878631262324
16.25952,3.040041900626377,0.1169538380455545
16.261908,3.0680278809637085,0.1155980812714299
16.264291999999998,3.09452361723382,0.1143795050191428
16.266688,3.1151528208915416,0.1133497377702903
16.269076,3.136293881228461,0.1123705764687136
16.271456,3.1495663082065737,0.1116197398090213
16.273851999999998,3.1586947640649927,0.1109973055012624
16.276239999999998,3.161165291378102,0.1105343427310705
16.27862,3.161633717944795,0.1101272211771089
16.281019999999998,3.1641042452579056,0.1096631845027999
16.283407999999998,3.161918944772124,0.109297262553764
16.285788,3.163877615406036,0.1088116556779963
16.288183999999998,3.15903858786778,0.1084889763394298
16.290571999999997,3.1589951577552746,0.1080631530208423
16.292956,3.1585324187621886,0.1076866415342987
16.295351999999998,3.1648673779412726,0.1071575559488132
16.297739999999997,3.166406739694604,0.1067265391422133
16.300124,3.166223539955239,0.1063154404796754
16.302519999999998,3.168182210589152,0.1058421696828725
16.304907999999998,3.170001111596204,0.1053886108165085
16.307288,3.175684444469229,0.1048585526536235
16.309692,3.1760131014090613,0.1044843933920053
16.312079999999998,3.1724773264829205,0.1041903697790328
16.31446,3.167591077116421,0.1039556617216454
16.31686,3.156838295137531,0.1038520223974393
16.319247999999998,3.147808074651337,0.1037303263059635
16.321631999999997,3.142222977150536,0.1035709603214958
16.324028,3.143156038568184,0.1032914540823553
16.326416,3.147022366292027,0.1029472787804368
16.328799999999998,3.151680089948788,0.1026042793208704
16.331196,3.1600624758446623,0.1021972400680895
16.333588,3.166023452113539,0.101891337776237
16.335967999999998,3.1743586161811703,0.1015828158566792
16.338368,3.1788293483828283,0.1013555521449282
16.340756,3.1845107853979844,0.101086571171677
16.34314,3.185256855360528,0.1009236411435886
16.345536,3.193731789055019,0.1006126285575812
16.347928,3.204069053869067,0.1002743227845403
16.350308,3.213614922750196,0.0999429118424256
16.352704,3.2210189212580485,0.0996698685572839
16.355092,3.225629423086567,0.0994427345488661
16.357476,3.2377364712215546,0.0990232248894864
16.359872,3.251985389729819,0.0985459009986196
16.36226,3.2754534160372497,0.0978726709275588
16.364644,3.308140550143846,0.0970027742157389
16.36704,3.346042590556775,0.0960288419845556
16.369428,3.384503709477145,0.095010925718426
16.371812,3.4200315620913204,0.0940706245357188
16.374208,3.45248637877244,0.0932015413810282
16.376596,3.4838702602669205,0.0923631026108207
16.378975999999998,3.513391810641846,0.091560735366839
16.381372,3.54319290027049,0.0907407154684931
16.38376,3.572621902846797,0.0898849620748265
16.386143999999998,3.60512394135616,0.0889781215658954
16.38854,3.636694814305744,0.0880982973047999
16.390928,3.674551528748299,0.0871035346647413
16.393311999999998,3.7076126457651024,0.086189566644678
16.395712,3.740673762781905,0.0852879848295056
16.3981,3.773595110171849,0.0844125500641035
16.400479999999998,3.811731363868125,0.0834543026699235
16.40288,3.851729948683958,0.082490305768176
16.405268,3.885302922379959,0.0816676966853333
16.407648,3.9178049608893217,0.0808675930618686
16.410044,3.944160927532574,0.0801896372959223
16.412432,3.966233153429272,0.0796091044359885
16.414816,3.9841614082062753,0.0791046264973706
16.417212,4.001949893356419,0.0786179724643084
16.4196,4.019226521827364,0.0781094011274123
16.421984,4.038784790298448,0.0775548791171285
16.424384,4.060764468396528,0.0769479388827327
16.426772,4.083675312054387,0.0763392330904309
16.429156,4.10486359421955,0.0757369152873507
16.431552,4.124841171571214,0.0751647529478212
16.43394,4.139371525191068,0.0746217678448449
16.436324,4.15087606470611,0.0740504827176225
16.43872,4.15185824380987,0.0735666905323346
16.441108,4.147021112129483,0.0730594986052126
16.443488,4.132080928918394,0.0725972656160488
16.445884,4.105454902310769,0.0721673471804732
16.448272,4.0651409315601885,0.0717919448791651
16.450651999999998,4.012349721480152,0.071439162661004
16.453048,3.952016639123272,0.071059086687921
16.455436,3.886935181168884,0.0706214341871989
16.457819999999998,3.811890441310654,0.0702182435238433
16.460216,3.726882419548584,0.06985186957649
16.462604,3.63284228144245,0.0695192769915917
16.464987999999998,3.532843062925309,0.0691450440607637
16.467384,3.426046146236,0.0688305884798168
16.469772,3.313010609881962,0.0684963420431902
16.472151999999998,3.1925257490496985,0.0681748033198038
16.474552,3.0645915637392083,0.0678936460421059
16.476936,2.931070385070048,0.0676282434321023
16.479319999999998,2.795314788228993,0.0672693624207102
16.481716,2.6640752495599704,0.0668411293746239
16.484104,2.5326487194358447,0.0665165366008221
16.486483999999997,2.4116047800961398,0.066051458999237
16.488884,2.302106914526112,0.065532954630489
16.491272,2.208438863472316,0.0648955451084776
