Time,Force,Position
18.117484,2.982287283425505,0.194835889307563
18.11988,3.158468182775961,0.1910108019294991
18.122264,3.3270637797370703,0.1876777620062795
18.124648,3.4850010383757746,0.1846792076309561
18.127044,3.620546893467295,0.1827862857750934
18.129432,3.742129056877879,0.181128969162581
18.131812,3.857244074913997,0.1793083225816035
18.134208,3.9630512290680686,0.1775247223768694
18.136596,4.051821655608149,0.1761143365780931
18.138996,4.125929542332993,0.1749511956727771
18.141392,4.186957681108435,0.1739192253043912
18.14378,4.242867253091901,0.1727934248093268
18.14616,4.289142200111358,0.1716996176635532
18.14856,4.326014839592284,0.1706998854963214
18.150948,4.349992826721043,0.1699243095656285
18.153328,4.361028939669391,0.1694156584549856
18.155724,4.3669918117961375,0.1688951213794919
18.158112,4.367973990899898,0.1684194888776627
18.160492,4.367141060712345,0.1679353794908417
18.162896,4.363002777166259,0.1675126201555878
18.165284,4.360494507314252,0.1670026244236199
18.167664,4.358545315969686,0.1664429136217413
18.17006,4.352080066453088,0.1659942645887119
18.172448,4.349758788056185,0.1654123175704069
18.174832,4.356377078204727,0.1645543711396673
18.177228,4.367790965779021,0.1635631027057821
18.179616,4.373710407793262,0.1627768987216889
18.181996,4.379490080180643,0.1620109550761526
18.184392,4.392067450740193,0.1610654085298948
18.18678,4.403014807605663,0.1601954276725882
18.18916,4.418757761896885,0.1591968988411138
18.191564,4.428913722829437,0.1583413571100862
18.193952,4.441583641187604,0.1574482758911103
18.196332,4.449178422866299,0.1567029197695054
18.198736,4.459426931597468,0.1559021684020893
18.201124,4.472189397754252,0.1550522039316303
18.203504,4.484951863911036,0.1542011417575798
18.2059,4.49771433006782,0.1533538862849599
18.208288,4.511967040291823,0.152453095931375
18.301476,4.035052069335233,0.1518077989580895
18.30386,4.027884179968597,0.1517623420653389
18.306256,4.023137700228957,0.1516206543939915
18.308648,4.020765408288072,0.1514526621815357
18.311028,4.026541288959715,0.151048536665312
18.313424,4.039394407057247,0.1504409784336022
18.315808,4.058114057767169,0.1496791128153992
18.318192,4.083351867395539,0.1487573995033222
18.320584,4.108589677023908,0.1478378676394587
18.322972,4.135550048144975,0.1468815931145877
18.325352,4.160228779265905,0.1460099327054426
18.327748,4.184488201506253,0.1451723304282789
18.330136,4.202461782253631,0.1445275321371149
18.332516,4.217362327067954,0.1439697544117371
18.39704,4.268378066253441,0.1438243096073909
18.399444,4.275640399276566,0.1437437057289909
18.401832,4.286627394538803,0.1435818358416896
18.404212,4.297055311293598,0.1434674182536741
18.406608,4.307063919167813,0.1433881982310569
18.408996,4.318283231855527,0.1432633123547566
18.411376,4.336812099394607,0.1429841831232025
18.41378,4.350265830254214,0.1428487910467386
18.416168,4.367863532233517,0.1425961325931155
18.418548,4.384250529399319,0.1423912385953278
18.420944,4.405433123990873,0.1420740312172216
18.423336,4.424613617836012,0.1418116897347335
18.428112,4.445886864368314,0.141744277686409
18.4305,4.461202926347479,0.1415838018634191
18.432884,4.4783813194462,0.1413792870325376
18.43528,4.494488777358282,0.141210085236352
18.437664,4.517533703069393,0.1408739634539935
18.440044,4.543931203967282,0.1404345661372878
18.442448,4.564462172252779,0.140132198657357
18.444836,4.581780334978359,0.1399247230069355
18.447216,4.594674987330526,0.1398530224194685
18.44962,4.608128718190136,0.139737369605673
18.452008,4.625726420169436,0.13951357529006
18.454388,4.645605762148876,0.1392162097672486
18.456784,4.667347435247871,0.1388878422083095
18.459172,4.686714920548113,0.1385858526163693
18.461556,4.704220074728798,0.1383127914996694
18.463952,4.71665009223001,0.1381661997981008
18.46634,4.726566152305608,0.138050076879994
18.46872,4.733828485328731,0.1379789114546237
18.471124,4.741510127232434,0.13787361352647
18.473512,4.7517529483899965,0.1376752540420419
18.475892,4.759202272868222,0.137530449758551
18.478296,4.762787165480475,0.1374701460310526
18.480684,4.770516029212423,0.1373053850304711
18.487856,4.769073006973446,0.1373046738425343
18.490236,4.770423481413807,0.1372535068697146
18.492636,4.772752343242188,0.1371237943378617
18.495024,4.7796444850708415,0.136858458813739
18.497404,4.783463590966441,0.1366682193623224
18.499804,4.784768739436425,0.1365084957979397
18.502188,4.788215758279688,0.1362952359204199
18.504572,4.788077884510697,0.1361381736809636
18.506968,4.787148614808788,0.1359870365989333
18.509352,4.793715891413348,0.1356473843954023
18.511736,4.8067087791377405,0.135149237506096
18.514132,4.825847738728243,0.1345175257839306
18.51652,4.842844827945467,0.133935670240672
18.5189,4.860633313095612,0.1333518523762135
18.521304,4.874277827126062,0.1328620826639419
18.523692,4.88885350671629,0.1323521009774184
18.526072,4.906502222239574,0.1317750558471586
18.528468,4.920286505896884,0.1312767925710833
18.530856,4.937004055860388,0.130719438998343
18.53324,4.956515102503229,0.130113970427501
18.535636,4.973372422093592,0.1295366143375705
18.583408,4.717587294600372,0.12909912385649
18.595364,4.642223377091655,0.1290972588488267
18.597744,4.630539429552988,0.1290946547711789
18.600144,4.620857582760736,0.1290492796438032
18.602532,4.614620858953877,0.128963516716553
18.604912,4.612667875893573,0.1287722803661523
18.607308,4.613228850258882,0.128555328565334
18.609696,4.615093077236308,0.128349282994226
18.61208,4.615467060146515,0.1282032518050674
18.614476,4.62943643940106,0.1277949947921648
18.616864,4.642474653095825,0.1274044555941845
18.619244,4.656583801977229,0.1269899899055045
18.62164,4.674277843470886,0.1265223011606429
18.624028,4.693973985710961,0.1260143169124475
18.626412,4.714973380563151,0.1255239361436324
18.628816,4.739697437654454,0.1249698960217962
18.631204,4.758927049185704,0.1245612637090364
18.633584,4.772429897731425,0.1242601891519405
18.63598,4.780997379224534,0.1240535864631501
18.638372,4.79184650071778,0.1237830113142558
18.640752,4.806839593330718,0.1234230065339209
18.643156,4.82704759224999,0.122946439385775
18.645544,4.844322324863067,0.1225309759054674
18.647924,4.858663791169948,0.1221702582575693
18.650328,4.869420364864577,0.1218575080340391
18.652716,4.879106003372566,0.1215740303704795
18.655096,4.890281885947776,0.1212355392707257
18.657492,4.905741509269538,0.1208006193059483
18.65988,4.925484873337856,0.1202714723489336
18.662264,4.937359604047367,0.1198954013334965
18.66466,4.949094565130016,0.1195299198500974
18.667048,4.9617606917724455,0.1191556632253937
18.669428,4.973635422481956,0.1187857164327682
18.671824,4.98215757800469,0.1184945713608928
18.674212,4.987234610542032,0.1182354218266148
18.676592,4.991100938265874,0.1180101186502661
18.678992,4.997109136362994,0.1177368435522282
18.681376,5.00497966557967,0.1174377335348539
18.68376,5.020439288901433,0.1170237863876938
18.686156,5.037481704089032,0.1166072618040432
18.688544,5.050240378530079,0.1162856574374892
18.690928,5.0609969522247065,0.1160037987333086
18.693332,5.066818158866722,0.1158020416837768
18.695716,5.075293092561213,0.1155715521802879
18.6981,5.088563623681456,0.1152688006888908
18.748272,5.049649245057347,0.1150596460538704
18.753056,5.037825527891819,0.1150380349226215
18.755436,5.031122273376136,0.1150296947505302
18.757836,5.026700658860592,0.1149667693577607
18.76022,5.022279044345047,0.1149035970580051
18.762604,5.024003501695612,0.1147284256547519
18.765,5.028381686098652,0.1145274761429028
18.767384,5.036764071994527,0.114262420347827
18.769764,5.053294630502928,0.1138578505801231
18.772164,5.068334944944112,0.1135053948752861
18.774552,5.0792312882656,0.1132324271476301
18.776948,5.095854394572618,0.1128825282339872
18.779344,5.113548436066275,0.1125161581900415
18.781736,5.136457383866265,0.1120622201425959
18.784116,5.161368432412671,0.1115786650721678
18.786516,5.191354617638551,0.111008048056284
18.7889,5.224972917304926,0.1103648960115789
18.79128,5.255006324359049,0.1097559089749256
18.79368,5.282106465106976,0.1091797672369926
18.796064,5.312279641787958,0.1085505505384697
18.798444,5.343244214401857,0.1079334078337376
18.800848,5.375931348508454,0.1072965448634886
18.803236,5.4055454466819945,0.1067057574081626
18.805616,5.4342283792957575,0.1061255441417805
18.80802,5.459838275976466,0.1055993331126398
18.810408,5.478510704858145,0.1051787483500774
18.812788,5.4946691763142095,0.1047731123535057
18.815184,5.506032050344522,0.1044331900013186
18.817572,5.509106982135446,0.1042317364739963
18.819952,5.51381192762045,0.1039753128334271
18.822356,5.518516873105454,0.1037191824180815
18.824744,5.517774594858648,0.1035142140462963
18.827124,5.51330765437273,0.1033489737382552
18.829528,5.50255487239384,0.1032878147561162
18.831916,5.489799989668533,0.1032546223400101
18.839084,5.445389269626501,0.103236526486441
18.841464,5.43691812764775,0.1031263248955523
18.84386,5.428866294549579,0.1029892805457025
18.846248,5.414808159212156,0.1029324953245976
18.848628,5.40331120312859,0.1028132521547974
18.851028,5.397308692605078,0.1025960748506916
18.853416,5.392516886895065,0.1023520297480496
18.855796,5.391217425998687,0.1020382475254615
18.858192,5.392991001035365,0.1016789678166284
18.86058,5.395416202378101,0.1013280051143919
18.86296,5.39583930297442,0.1010015371182951
18.865356,5.400825683571014,0.1005851693360262
18.867744,5.405532524913888,0.1001891097368617
18.870128,5.408516804764064,0.0998008350844639
18.872524,5.415225746853355,0.0993765918627829
18.874908,5.426590516741537,0.0989105550512677
18.877292,5.439445530696937,0.0983979931018019
18.879696,5.454442415025615,0.0978517005387034
18.882084,5.4630136882344615,0.0974133941301289
18.884468,5.475868702189863,0.0969013945758799
18.886864,5.487373241704904,0.0964271911074928
18.889252,5.497667076406447,0.0959859868348329
18.891632,5.504887875174936,0.0955874937919997
18.894028,5.517183810622896,0.095121896746558
18.896416,5.532273242750191,0.0946397811146609
18.898796,5.5461519700639865,0.094188220852364
18.901192,5.561101632564421,0.0937238303670609
18.90358,5.566692417638829,0.0933839241814209
18.905964,5.57028110196682,0.0930670204215563
18.90836,5.574428864802253,0.0927166529107538
18.910748,5.583372225063438,0.0923198351934355
18.913132,5.590173714951344,0.0919563155652145
18.915528,5.596044039279473,0.0916016367174668
18.917916,5.601774593980742,0.0912532942471721
18.9203,5.604432112748955,0.0909438546708498
18.922696,5.60043170297186,0.0906942985019534
18.925084,5.600155955433878,0.0904166046265392
18.927468,5.599460899015316,0.0901652387650786
18.929864,5.600116317037111,0.0898801615583652
18.932252,5.602913605432184,0.089565672980775
18.934632,5.604639958640619,0.0892661990948943
18.937032,5.601011635915861,0.089043643234931
18.93942,5.6009682058033565,0.0888014664874353
18.9418,5.599714070877353,0.0885842848957289
18.9442,5.592174094458379,0.0884500480666786
18.946588,5.583423413225907,0.0883388536011847
18.948968,5.572111552739576,0.0882819162720546
18.951372,5.570530656731608,0.0881327833492892
18.953756,5.571743257402977,0.0879631980846886
18.956136,5.571605383633986,0.0878252642255244
18.95854,5.5685342435588,0.0877158200291587
18.960928,5.56718566497631,0.08760144016229
18.963308,5.563695216020543,0.0875165103046824
18.965712,5.563138033370972,0.0874033831034917
18.968096,5.568726922587513,0.0872188780786055
18.970476,5.578971639602941,0.0870009702399814
18.97288,5.5841412199389,0.0868411645587785
18.975268,5.587588238782164,0.0866860514033175
18.977648,5.5936889846779,0.0865206789048253
18.980044,5.594435054640444,0.086428169433413
18.982432,5.597462764603126,0.0862985325753384
18.984808,5.603703280125723,0.0861241614558754
18.987212,5.609152399715402,0.0859493091270181
18.9896,5.611808022625746,0.0857930773623733
18.99198,5.616605515909368,0.0856071918614464
18.994384,5.622473944379626,0.0854075733053424
18.996772,5.632626113596441,0.0851516411435786
18.999152,5.642406195760916,0.0848731953042076
19.001552,5.651394881992474,0.0845937670223297
19.003936,5.662525438597309,0.0842873210175824
19.006316,5.67565809594856,0.0839619078150012
19.008716,5.687999357366894,0.0836356845305052
19.011104,5.703413654718283,0.0832760305435122
19.013484,5.716686081696396,0.0829444513393105
19.015888,5.725814537554814,0.0826629149377857
19.018276,5.731218331174119,0.0824029199227986
19.020656,5.737832829606923,0.0821202143243301
19.02306,5.744726867293448,0.0818211007559201
19.025448,5.749106947554357,0.0815237375984658
19.027828,5.759772869308238,0.081154271548802
19.030224,5.770578560688978,0.080779951960187
19.032612,5.78166379132344,0.080390802916786
19.034992,5.791678086771263,0.0800161958803985
19.037388,5.803694482965502,0.0796225905620892
19.039776,5.815990418413461,0.0792142841965751
19.042156,5.827075649047924,0.0788280784139584
19.044556,5.834016908562692,0.0784875438428117
19.046944,5.836394888077183,0.0782142676330741
19.049324,5.840774968338093,0.0779249407291508
19.051728,5.845946444531921,0.0776406733271042
19.054112,5.853911417405085,0.0773455248248409
19.056492,5.863598951770944,0.0770503956076243
19.058888,5.873286486136803,0.0767571022895864
19.061276,5.886186826062578,0.0764290992680633
19.06366,5.896293669309018,0.0761130875842097
19.066056,5.910125174794572,0.0757785396298252
19.068444,5.924748076213042,0.0754472603392865
19.070824,5.938160272818015,0.0751347411639739
19.07322,5.951153160542407,0.074844576846607
19.075608,5.95692904121405,0.0746231558245234
19.078004,5.960283512258695,0.0744411911872173
19.0804,5.96335844404962,0.0742747071384503
19.082788,5.965502210280765,0.0741123373215802
19.085168,5.967645976511911,0.0739502313995127
19.087564,5.969370433862477,0.0738109677326362
19.089952,5.971374430466763,0.0736567318462167
19.092332,5.972726800764991,0.0734908381098043
19.094728,5.973287775130301,0.0733200891542078
19.097116,5.971846648749194,0.0731659741868577
19.0995,5.966401320875254,0.0730434543982937
19.101896,5.9542980644560055,0.0729568251617977
19.104284,5.939680850611142,0.0728665586687253
19.106664,5.92399270157964,0.0727872862416684
19.109072,5.903369185495525,0.072741752511211
19.111456,5.883816604598049,0.0726842902437379
19.113836,5.862681231834738,0.0726184722955632
19.116236,5.838100736086033,0.0725519861990418
19.11862,5.8150104844045485,0.0724495429012264
19.121004,5.788754648991391,0.0723304861615964
19.1234,5.7633374313393935,0.0721633158666519
19.125788,5.735034169209444,0.0719620845850576
19.128168,5.701702992228268,0.0717493936327209
19.130564,5.662272965209222,0.0715365961124353
19.132952,5.614602217779032,0.0713476950871403
19.135336,5.557247727698722,0.0711674096955227
19.137732,5.493002991647626,0.0709795925781208
19.14012,5.423450801491579,0.0707946352605524
19.142516,5.35236304129794,0.070535021604902
