Time,Force,Position
17.089551999999998,1.877808563506925,0.205462184202338
17.09194,1.878599959439843,0.2054260268938448
17.094320000000003,1.882604160932677,0.2050920162227584
17.096719999999998,1.8908921031720645,0.2043356752031969
17.099108,1.9013219157847296,0.2033946518387335
17.101488000000003,1.914684994703589,0.2022259801373759
17.103887999999998,1.931121109555505,0.2007740173442893
17.106276,1.9476969940342803,0.1992259039995922
17.10866,1.964412648139916,0.1975836148081733
17.111060000000002,1.981687380752993,0.1958079428708483
17.113447999999998,2.002454458179706,0.1936063775109275
17.115831999999997,2.0237806141138592,0.1913097073147957
17.118228000000002,2.0420337341149573,0.1893722025631894
17.120616,2.0564224222500824,0.187842861182653
17.122999999999998,2.0642929514667587,0.1868393361464723
17.125396000000002,2.073466733295551,0.1858255617717577
17.127788000000002,2.0783567743777893,0.1851884189491154
17.130167999999998,2.0825951891539694,0.1845706600053865
17.132564000000002,2.081339158370097,0.1844373030661341
17.134956000000003,2.082224997959501,0.1841169062756705
17.137335999999998,2.0931213412809897,0.1830317024296217
17.139736,2.097731843109508,0.1824681668483679
17.142128,2.105927237550278,0.1817132439186147
17.144512,2.1157054238568853,0.1809119122278422
17.146912,2.123481509417076,0.1802691402918472
17.149300000000004,2.1312575949772654,0.179647887333174
17.151684000000003,2.1348897094177617,0.1793192891201147
17.15408,2.1415948597913133,0.1787660321457673
17.156468000000004,2.154026773150395,0.1778645641126285
17.158852000000003,2.166179147255757,0.1770212854935993
17.161248,2.1749789461743423,0.1764455802109999
17.16364,2.183638975466067,0.1759100652004087
17.166020000000003,2.1924387743846525,0.1753493132162621
17.168419999999998,2.1975139110641253,0.1749972348623738
17.170816000000002,2.201098803676378,0.1748017537517993
17.1732,2.2031009044227954,0.1746623851544951
17.175596,2.209386745915766,0.1741891642269843
17.177984000000002,2.2133909474085995,0.1739110438608914
17.180368,2.223541220767544,0.1731835092894238
17.182768000000003,2.23834732192538,0.1722170974853582
17.185160000000003,2.243794545657189,0.1719308811346355
17.197116,2.255338723568998,0.1717042305291277
17.1995,2.261158034353145,0.1714770308691101
17.201880000000003,2.2707020073764053,0.1710713926724921
17.204292000000002,2.275450382973914,0.1709366084320858
17.20668,2.281921320064119,0.1707358120551282
17.20906,2.296680199393712,0.1700439332445043
17.211475999999998,2.3091574387231675,0.1695116325529439
17.213860000000004,2.3204239732391247,0.1690679284534595
17.21624,2.335415169994195,0.168432046366659
17.218643999999998,2.352548237122542,0.1676378731032075
17.221032,2.3727543401839446,0.1666652127668794
17.223412000000003,2.389747637685432,0.1659147387379221
17.225816000000002,2.4067409351869182,0.1651472661268098
17.228203999999998,2.4201493400761525,0.1645588841628942
17.230584,2.4247579460468014,0.1644542588775644
17.232988,2.4317879616444467,0.1641516424596847
17.235371999999998,2.443241487615506,0.1635610649678628
17.237752,2.4603292287734804,0.1625837568860201
17.240147999999998,2.474623473252119,0.1617483056684565
17.299888000000003,2.447396833882417,0.1611676351160332
17.302267999999998,2.4518675660840743,0.1607719562214583
17.304672000000004,2.4607618086591465,0.1600796795443118
17.30706,2.4716581519806358,0.1592925878552088
17.309440000000002,2.482834034555844,0.1584726333514165
17.311836,2.495080852317691,0.1575850923099829
17.314224000000003,2.5073276700795386,0.1567113764204361
17.316603999999998,2.5238582285879407,0.1555888398145145
17.319000000000003,2.537175981536427,0.154673712864778
17.321384000000002,2.5512851304178312,0.1537736299015231
17.323764000000004,2.569817789672649,0.1526117818939537
17.326168000000003,2.5800625066880807,0.1518932565516907
17.328556,2.5853718566508994,0.1514150340722284
17.33094,2.588539336240441,0.1510478903051399
17.333336000000003,2.5957110173228166,0.1504837480283548
17.335720000000002,2.605024568778469,0.1497960977732132
17.338104,2.612475789114564,0.1491831077055233
17.3405,2.623372132436053,0.148446509860306
17.342883999999998,2.638784533929573,0.1475605027378511
17.345264,2.652194834676676,0.1467695775050401
17.347672000000003,2.66383535210284,0.1461515621683854
17.350056000000002,2.67705866139484,0.1455320459292889
17.35244,2.6938668632990925,0.1448160781780328
17.354836,2.7093245907629866,0.1442085528298084
17.357224000000002,2.7214297430401047,0.143777423215112
17.359603999999997,2.7343262912501416,0.1433372898531105
17.362008000000003,2.747222839460178,0.1429055011287169
17.364392000000002,2.757558208416356,0.1426420730200213
17.371560000000002,2.7713840263283016,0.1424765708394537
17.373939999999997,2.777994733045367,0.1423401005961278
17.376344000000003,2.782463569389155,0.1423040759186342
17.378728000000002,2.7881431105464425,0.1421943931856715
17.381107999999998,2.795684982823286,0.1420222833062278
17.383512000000003,2.806020351779465,0.1417612524457862
17.3859,2.8200803829747567,0.1413796819015831
17.38828,2.8392155508495205,0.1408053381164054
17.390676,2.855557222044949,0.14034037720465
17.393064000000003,2.874040763613656,0.1397802004416431
17.395448000000002,2.8938747796227204,0.139137765370711
17.397844,2.9090529678328942,0.1386519763575792
17.400228,2.922368824923512,0.1382399616211432
17.402608,2.933822350894572,0.1378802535595945
17.405008000000002,2.952353114291521,0.1372697932113119
17.407396,2.9707441080616106,0.1366824271248813
17.409776,2.9880641666450605,0.1361434263462837
17.412171999999998,3.0095281963482057,0.1354609830084913
17.41456,3.0367189890368795,0.1346170135754792
17.416956,3.0688451487781663,0.1336038105120224
17.419352000000003,3.1001799125865346,0.1326183719396553
17.42174,3.128441640461848,0.1317384574604201
17.424120000000002,3.158985008337298,0.1307430097306118
17.426520000000004,3.189528376212748,0.1297475620008035
17.428904000000003,3.221282448901697,0.1287244569944215
17.493412,3.1784091947551287,0.1286129115666387
17.495792,3.174267119493304,0.1284979667729586
17.498192000000003,3.166400381992366,0.1284744472463038
17.50058,3.1620259893050644,0.1282998598908848
17.50296,3.154718330311568,0.1282109885965819
17.505356,3.153044886504984,0.1278913942600685
17.507744000000002,3.153792852325397,0.1274552228536176
17.510128,3.153609652586032,0.1270417377950681
17.512532,3.1555683232199443,0.1265485347003349
17.514916,3.15580443236116,0.1260830922543437
17.5173,3.1513847137034845,0.1257350672127807
17.5197,3.144171498366473,0.1254572780382759
17.522088000000004,3.13760990933552,0.1251887964001427
17.524468,3.137194392170678,0.124720409049742
17.526871999999997,3.133705839072781,0.1243526693502777
17.52926,3.1299377467211618,0.1240172583623597
17.531640000000003,3.126029884742684,0.123697969591454
17.534044,3.122773649070264,0.123389580565697
17.536428,3.1224506797040386,0.1230017613067918
17.538812,3.1340005451894544,0.1222794983121038
17.541207999999997,3.144479475488232,0.1215943286611777
17.543596,3.1566809672797054,0.1208965071597638
17.545976000000003,3.168742689444319,0.1202115698099638
17.548372,3.180804411608933,0.1195319197731342
17.550760000000004,3.1959391697066017,0.1187605268901935
17.55314,3.207861122244356,0.118109479519829
17.555543999999998,3.222436801834584,0.117422407224161
17.557932,3.2339394454917567,0.1168120670476794
17.560312000000003,3.241437887656095,0.1163096960483492
17.562716,3.250798660939991,0.1157644870387762
17.565103999999998,3.263604557209279,0.1151652256705298
17.567484,3.2759911445979872,0.1146096606337489
17.569879999999998,3.288517501613555,0.1140456555748715
17.572268,3.2899624197104003,0.1137951481418079
17.574652,3.2915471074341056,0.1135271340766761
17.605712000000004,3.1967231568265317,0.1133579500526725
17.6081,3.1975617745876925,0.1132678670074054
17.610480000000003,3.20040249309527,0.1131289479217622
17.612884,3.204733455670067,0.1129161277727012
17.615271999999997,3.214279324551197,0.1125647049756107
17.617652,3.219541452685772,0.1123364100751161
17.620048000000004,3.236396876418268,0.1118560466572569
17.622436,3.257116732016738,0.1113004448221788
17.624816000000003,3.279559149107904,0.1107345522908088
17.627212,3.3010704006392926,0.1101827539603004
17.629604,3.324304213663376,0.109605325939621
17.631984000000003,3.349260588180157,0.1090040633090139
17.634388,3.3739374234432176,0.1084381270443965
17.636772,3.394330517959723,0.1079966282938419
17.639156,3.4164461739689256,0.1075298935789733
17.641556,3.4385618299781275,0.1070679910136413
17.643943999999998,3.4586753852409133,0.1066538324998497
17.646324,3.4781373141976406,0.1062293980438057
17.648724,3.49666807759459,0.1058198486650369
17.651108,3.517200941737956,0.105355689916022
17.653492,3.535080078828848,0.1049376689545733
17.655887999999997,3.5461615177475703,0.1046739157701758
17.658276,3.5540301511063777,0.1045029971702736
17.672608000000004,3.563526902301396,0.1044793237534408
17.674992000000003,3.565249463794093,0.1044645921342787
17.677388,3.5695332045406465,0.1043562476354456
17.679776000000004,3.5739567149140616,0.1042348257399968
17.682156,3.5750748719289427,0.1041281014755536
17.684552000000004,3.5807563089440992,0.1038858239634439
17.68694,3.5879279900264742,0.1035780858468025
17.689335999999997,3.594727584056512,0.1032335908893503
17.691732000000002,3.603669048459827,0.1028355983012065
17.694119999999998,3.6096772465569456,0.1024884454974803
17.6965,3.616756379840704,0.1021134552681545
17.698900000000002,3.624906448311101,0.1017131701736211
17.701287999999998,3.6317060423411394,0.1013656437028803
17.703664000000003,3.637574470811399,0.1010284961473665
17.706068000000002,3.644793373722017,0.1006362800150159
17.708455999999998,3.649218779953301,0.1002874055498495
17.710836,3.6579279269311393,0.0998268421517493
17.713236000000002,3.668359635401673,0.0993589845523551
17.71562,3.676789243125791,0.0989321155905264
17.718000000000004,3.684427454916989,0.0985045264668596
17.720399999999998,3.685827047043461,0.098144438132425
17.722783999999997,3.6849449991697942,0.0978530953652524
17.725168000000004,3.684435038348466,0.097604880250027
17.727564,3.6859271782735545,0.0973201493042443
17.729948,3.692075145997535,0.09697301787737
17.732343999999998,3.698362883348375,0.096619810738128
17.734740000000002,3.7026485199527976,0.096304538641621
17.737128,3.70637507804978,0.0960407540076048
17.739508,3.711172571333401,0.0957560763809511
17.741903999999998,3.721976366856273,0.0953671614396859
17.744292,3.732780162379145,0.0949792403461718
17.746676,3.744794662715514,0.0945614865703149
17.749076000000002,3.762303608611938,0.0940233545589469
17.751464,3.782885590441417,0.0934283212342578
17.753844,3.80626106895023,0.092811222511564
17.75624,3.832569813765239,0.0921558761097785
17.758628,3.8579473930204697,0.0915171421881963
17.761012,3.878157287797611,0.0909059860334013
17.763408,3.896504851455195,0.0903073249199905
17.765796,3.91499218473964,0.0896950826005538
17.76818,3.937995576196117,0.0890400360759166
17.770576,3.9602075717196743,0.0883818747784099
17.772964,3.9768325738845625,0.0877855052763627
17.775344000000004,3.99345757604945,0.087199504208802
17.77774,4.008871873400839,0.0866538988833941
17.780132000000002,4.018931494819036,0.0862162688772522
17.782512000000004,4.032715778476347,0.0857454163109643
17.784912,4.046360292506796,0.0852857980886108
17.787300000000002,4.057351079484771,0.0848464000967483
17.789684,4.067131161649248,0.0844472242603734
17.79208,4.076771474186864,0.0840600069245719
17.794468000000002,4.083059211537703,0.0837468754185837
17.796847999999997,4.0827815681418524,0.0835673471387278
17.799248,4.086228586985114,0.0833576805899609
17.801636000000002,4.086742339522181,0.0831852052930848
17.804015999999997,4.084322825753054,0.0830479998972305
17.806416,4.082694707916843,0.0829142330536619
17.808804000000002,4.087584748999081,0.0827277892299676
17.811183999999997,4.09862086194743,0.0824536640572032
17.813584,4.110308601201837,0.0821938402523029
17.815972000000002,4.121065174896465,0.0819429657132459
17.818351999999997,4.132892683777732,0.0816742210010123
17.820748000000002,4.149655559711611,0.0813470043793107
17.823140000000002,4.162554003779517,0.0810613304368827
17.825524,4.173869655981586,0.0807691924374992
17.827928,4.191051840796046,0.08041210574517
17.830316000000003,4.2053007593043095,0.0800918135208543
17.832696,4.2168959507601,0.0797787820553681
17.835092000000003,4.227652524454728,0.0795292911358803
17.83748,4.234544666283383,0.079319667614943
17.83986,4.24078518180598,0.0790953120829961
17.842256,4.247165466955437,0.0788585451863274
17.844644000000002,4.256106931358753,0.0785512246206773
17.847023999999998,4.256388366470342,0.0783318382819311
17.849428000000003,4.254667700835515,0.078136902935247
17.851812000000002,4.2528072655738285,0.0779522051008854
17.854196,4.250015664752363,0.0777750539473242
17.8566,4.243080092811203,0.0776595717306822
17.858988000000004,4.236796147176101,0.0775589951983057
17.861368,4.231583136727638,0.0774413000756205
17.863771999999997,4.226090587025455,0.0773448280434142
17.86616,4.222180829189107,0.0772566935013164
17.868540000000003,4.212264769113509,0.0772386035147622
17.870944,4.206864767209943,0.0771988128114043
17.873331999999998,4.204258261985711,0.0771397892748462
17.878107999999997,4.186660560006409,0.0771235195451689
17.880492000000004,4.180329392543063,0.0770889992032784
17.882872,4.177770109147075,0.0769618668865294
17.885268000000003,4.178283861684141,0.0767947766717957
17.887656,4.180659945340765,0.0766157770287612
17.890036000000002,4.186248834557305,0.0763881113202786
17.892436000000004,4.191418414893263,0.0761924794249487
17.894824,4.201523362281834,0.0759448703098144
17.897204000000002,4.213630410416822,0.0756736370577034
17.899608,4.224946062618891,0.0753958843415569
17.901992,4.234259614074543,0.0751398034557743
17.904376,4.240779668850861,0.0749000516133573
17.906772000000004,4.23943109026837,0.0747416951066611
17.90916,4.237151346126103,0.0745897317226206
17.911535999999998,4.234499514931498,0.0744005531047107
17.913940000000004,4.230404661497916,0.0741919065142605
17.916328,4.232316110303585,0.0739149636282262
17.918708000000002,4.227709400190806,0.0736788094298485
17.921112,4.2192382582120525,0.0734765604017346
17.923499999999997,4.211977821046799,0.0732453996125761
17.92588,4.210072059814737,0.0729309600276264
17.928276000000004,4.2055125715302015,0.0726223360145735
17.930664,4.194015615446637,0.0723831827420296
17.933048,4.175720961190903,0.0722030476080237
17.935444000000004,4.1529102487631375,0.0720372989385319
17.937832,4.123721147043785,0.0718947968704181
17.940212000000002,4.089364360846344,0.0717502883838051
17.942608,4.045695919051117,0.0716600504461073
17.944996000000003,3.9949974616582455,0.0715781840671863
17.947380000000003,3.939782946093343,0.071514903185129
