Time,Force,Position
18.866172,2.970052889893408,0.2007010793072394
18.868556,3.1627624518943973,0.1952446185840498
18.870952,3.341041791505626,0.1912001480979862
18.873344,3.5074520879809525,0.1878962158667088
18.875724,3.6661373124400702,0.1847497573741815
18.878124,3.8145835074573657,0.181800187848672
18.880512,3.947715536353366,0.1793367214778471
18.882896,4.063111989501072,0.1773951942942771
18.885292,4.17050383137885,0.1754316035662759
18.88768,4.2665384867999245,0.1736660350657709
18.890064,4.345721510204241,0.1723476871437155
18.89246,4.414710830137107,0.1711400346987955
18.894848,4.478581583277997,0.1698721034672564
18.897232,4.531699554439996,0.168757002882215
18.899632,4.574157291421723,0.1678473472831114
18.90202,4.605535485342597,0.1671561545589468
18.904404,4.627277158441593,0.1666516951711546
18.9068,4.643758599263881,0.1662292438139331
18.909188,4.659216326727774,0.1657904338063225
18.911572,4.667504268967162,0.1655230339034124
18.913968,4.671276153034518,0.1653682343827767
18.916356,4.6723943100494,0.1652713661222284
18.91874,4.678447834116895,0.1650355695310075
18.92114,4.685152984490447,0.1648017670718154
18.923528,4.693580696356695,0.1645405947064125
18.925912,4.701589099342361,0.1643158123614458
18.928308,4.712530768634224,0.1640125662872027
18.930696,4.732272236844672,0.1634773938035004
18.933076,4.750011604308702,0.162999981101622
18.935476,4.766540266959234,0.1625676408335278
18.937864,4.787073131102601,0.162023499785153
18.940244,4.80588343375327,0.1615072939758787
18.94264,4.817197190097471,0.1612310992340835
18.945028,4.831304443121006,0.1608909074518011
18.947408,4.843409595398125,0.1606037568915463
18.949804,4.855654517302103,0.1603020483237005
18.952192,4.871252014392857,0.1598881737239394
18.954576,4.8814022877518015,0.15959586196387
18.956972,4.891040704431548,0.1592961702748936
18.959364,4.903100530738292,0.1589037987496506
18.961744,4.912227090738842,0.1585899195977725
18.96414,4.920841794060193,0.1582618273102937
18.966528,4.926011374396152,0.1579990147564447
18.968912,4.928666997306496,0.1577767725763436
18.971308,4.925084000552112,0.1576818392395155
18.973696,4.924574039730784,0.1575006013629409
18.97608,4.924064078909455,0.1573201674371507
18.978476,4.916616650289098,0.1573182010512075
18.980864,4.910240156855379,0.15728418565302
18.983248,4.905865764168078,0.1571977876236899
18.985644,4.899629040361219,0.1571516721011503
18.988036,4.897536287674055,0.1569907367603052
18.990416,4.901869146106721,0.1566412104366557
18.992816,4.906202004539388,0.1562953739195441
18.995204,4.915609999651526,0.1558185262953018
18.997584,4.925157764390525,0.1553283174882899
18.99998,4.932284119502528,0.1549251401165767
19.002368,4.944206072040281,0.1544123362466183
19.004752,4.9511926575254215,0.1540201137041054
19.007148,4.959901804503259,0.1536029426706429
19.009536,4.966888389988401,0.1532097691890827
19.136188,4.800948415937635,0.1532031138992965
19.13858,4.8054172522814245,0.1531782362685481
19.14096,4.814821455677824,0.1530367924711588
19.14336,4.82715892538042,0.1528256992774539
19.145748,4.835771732843902,0.1526891842705089
19.148132,4.846386641053801,0.1525011692788884
19.150528,4.859283189263836,0.1522429506904208
19.15292,4.868315305607899,0.15207318276959
19.1553,4.879349522698379,0.151851789959231
19.1577,4.891454674975498,0.1515958169153258
19.160084,4.908634963932088,0.1512012864994966
19.162468,4.928096892888815,0.1507316713806245
19.164868,4.945044864419929,0.1502937858966724
19.16726,4.962412144831623,0.1498218148522569
19.16964,4.97763755487004,0.1494174294451336
19.17204,4.988998533042484,0.1491074630662382
19.174428,4.998077871214789,0.1488750346767857
19.176812,5.003013238267401,0.1487565318451979
19.179208,5.015537699425099,0.1484752094346319
19.181596,5.02713099502302,0.148218265384139
19.18398,5.033649153941468,0.1480869443249607
19.188764,5.03369637576971,0.1480290163644981
19.191148,5.031881266478398,0.1480080422092856
19.193548,5.035932689799474,0.1478561278867927
19.195936,5.041055048307189,0.1476758538680949
19.19832,5.04310437088185,0.1475719381779956
19.200716,5.048086959762705,0.1474028970239544
19.203104,5.054140483830199,0.1472057915104053
19.205488,5.061544482338052,0.1469580294366745
19.207888,5.070159185659403,0.146673735290716
19.210276,5.07598039230142,0.1464425184986127
19.212656,5.085666030809409,0.1461279059355706
19.215056,5.094932360436817,0.1458457314302715
19.217444,5.1024761285715305,0.1455873538712271
19.219828,5.1110908318928825,0.1452996622046233
19.222224,5.119193678535036,0.1449987643286231
19.224616,5.1246427981247145,0.1447387190936674
19.226996,5.1235737587959465,0.1446063214748982
19.229396,5.116777956481647,0.1445922881641908
19.231788,5.113194959727262,0.1444918038805205
19.234172,5.113057085958272,0.1443408551377216
19.236592,5.1167836440552525,0.1441075828050144
19.238984,5.11743716621918,0.1439494033064936
19.241368,5.116368126890411,0.1438171721333511
19.243788,5.115578626815362,0.1436642197527031
19.24618,5.114928896367174,0.1435001536525834
19.248564,5.114558705172705,0.1433156375855207
19.250968,5.1131175787916,0.1431591858779659
19.253356,5.11246784834341,0.1429964687372268
19.255736,5.108884851589027,0.1428952703642111
19.25814,5.1087469778200365,0.1427473743316058
19.260528,5.109680039237683,0.1425733530258146
19.262908,5.111032409535912,0.1423683145009901
19.265304,5.116109442073253,0.1420970864624931
19.267692,5.120255309050816,0.1418421637684813
19.270072,5.128265607894353,0.1415150295421003
19.272468,5.14214243935028,0.1410704711680967
19.274856,5.157741832298904,0.1406014310958385
19.277236,5.17706588748664,0.140060597973249
19.279632,5.199323208980572,0.1394665957528115
19.28202,5.215713997862114,0.1389914722416061
19.284404,5.229962916370378,0.1385727952390023
19.2868,5.247284870811698,0.1380846125524901
19.289188,5.261533789319962,0.137665126290733
19.291568,5.274432233387867,0.1372947209326862
19.293964,5.290124174135108,0.1368781438526145
19.296352,5.306327971561546,0.1364809866550234
19.298736,5.321740373055066,0.1360887171522431
19.30114,5.337013004921728,0.1357092102904198
19.303528,5.354147967907943,0.135299275421522
19.305912,5.366906642348989,0.1349462108019705
19.308308,5.377523446416758,0.1346468112413126
19.310696,5.391073516790722,0.1342956935042139
19.313076,5.403832191231766,0.1339537066869872
19.315472,5.420455297538784,0.1335453947877574
19.31786,5.431072101606553,0.1332578699180487
19.320244,5.439966344181624,0.1329938153778274
19.32264,5.447277794890859,0.1327383337591569
19.325028,5.4578020511600105,0.1324139290591676
19.327412,5.46367047963027,0.1321617871616572
19.329808,5.473822648847085,0.1318139833705898
19.332196,5.484254357317618,0.1314475720093496
19.334576,5.493475360974654,0.1311156886604018
19.33698,5.506840335751382,0.1307001151418189
19.339368,5.521136476087891,0.1302716558374431
19.341748,5.533570285304841,0.1298736429946652
19.344144,5.543350367469318,0.1295086302387075
19.346532,5.5539218455667125,0.1291387297879389
19.348912,5.564633093290968,0.1287614572380166
19.351312,5.573342240268805,0.1284210712880895
19.394324,5.491788820781471,0.1283056455588632
19.396712,5.489694172236438,0.1282981486209736
19.399092,5.4917434948110975,0.128212629373701
19.401492,5.491790716639342,0.1281616934103788
19.403876,5.500637737386171,0.1279707573700222
19.40626,5.517353391491808,0.1276500865182868
19.408656,5.541425822277053,0.1271881390374322
19.41104,5.5677798930624345,0.1266712428290043
19.413424,5.592271632728261,0.1261732180197332
19.415828,5.6229094442601975,0.1255606488193513
19.418212,5.646889327246826,0.1250497567810301
19.420596,5.668727339860176,0.1245829464404648
19.422992,5.686840690234415,0.124169595075936
19.425384,5.708306615795427,0.1236826839657716
19.427764,5.725488800609889,0.1232830977217527
19.43016,5.739458179864432,0.1229500887144097
19.432548,5.754638263932475,0.1225827503147215
19.434932,5.774474175799409,0.1221558332723537
19.437328,5.792028447666206,0.121784631868444
19.439716,5.809862258786723,0.1213952959368814
19.4421,5.823272559533827,0.1211035482596875
19.444496,5.831328184347739,0.1209181091730527
19.446884,5.833097967668677,0.12085173378764
19.458836,5.826861243861818,0.1207701515893685
19.463604,5.824766595316784,0.1207607479331293
19.466004,5.8293298753170575,0.1206643170177741
19.468392,5.837385500130969,0.1204921387209022
19.470772,5.843858333079044,0.1203238068539831
19.473172,5.847258130094064,0.1202068526217156
19.47556,5.854150271922719,0.1200130773871241
19.47794,5.863603593005231,0.1197544198476573
19.48034,5.873196683714605,0.1194861498004831
19.482724,5.873478118826195,0.1193294445198749
19.485108,5.870174661325531,0.1192084676795178
19.487504,5.867010973451728,0.1190787261143798
19.489896,5.864266594458504,0.1189224778535857
19.492276,5.86408339471914,0.1186984728427406
19.494672,5.865250669420133,0.1184342587842428
19.49706,5.859620245948959,0.1182694408291465
19.499444,5.845981419492118,0.1182347047064914
19.50184,5.837557499341607,0.1181044636060279
19.525728,5.650470777380316,0.118063866035763
19.528112,5.632735201632023,0.1180386153578565
19.530508,5.622588719988817,0.1179171980058559
19.5329,5.618169001331141,0.1177206864140903
19.53528,5.614680448233243,0.1175134399568723
19.537676,5.614264931068401,0.1172568131845076
19.540064,5.618784780956171,0.1169319907374561
19.542448,5.628379767523413,0.1165306557346908
19.544844,5.64090802039685,0.1160850399079182
19.547232,5.665868186629371,0.1154365623350894
19.549616,5.684822050622638,0.1148795098151553
19.552012,5.707500576855021,0.1142814987549682
19.5544,5.733903765326517,0.113644873266905
19.556784,5.756582291558898,0.1130525924187301
19.55918,5.785546659284251,0.1123587103528367
19.561568,5.818654998129297,0.1116001621068533
19.563952,5.854836372907398,0.1107894717582404
19.566352,5.888224251006165,0.1100178509453553
19.56874,5.920820733172014,0.1092528842671227
19.571124,5.95513977683056,0.1084784345296813
19.57352,5.98531484936941,0.1077710400186289
19.575908,6.015862008960599,0.1070990572960989
19.578288,6.044546837432232,0.106451513098567
19.580688,6.072160730717226,0.1058276033082646
19.583072,6.097912292882663,0.1052243777174758
19.585456,6.121242445421103,0.1046768263117923
19.587852,6.137215821279933,0.1042444231067647
19.59024,6.14904522601907,0.1038752212562252
19.59262,6.16487883225104,0.103457259347449
19.59502,6.172424496243623,0.1031613039318611
19.597404,6.184765757661957,0.1028146857580924
19.599788,6.192730730535119,0.1024949097251476
19.602196,6.196411962661727,0.1022411266678797
19.604588,6.206611353706784,0.1019311484391697
19.606972,6.2123872343784265,0.101695324528945
19.609368,6.213087978370597,0.1015237820819544
19.61176,6.216582219042103,0.1013291294086951
19.61414,6.219145294153829,0.1011424942553969
19.61654,6.220497664452057,0.1009793858678099
19.618928,6.217985602884311,0.1008556348954669
19.621312,6.219477742809399,0.1006843610453168
19.623708,6.217384990122235,0.1005376075895908
19.626096,6.2160836333679885,0.1003909820510333
19.62848,6.21599298142724,0.1002219527161525
19.630876,6.214831394299853,0.100067728754397
19.633268,6.2099451449333545,0.0999439370535125
19.635652,6.207060996313272,0.0997959875258814
19.638048,6.207249883626245,0.0996090456042231
19.64044,6.204505504633023,0.0994540714470188
19.642824,6.204414852692275,0.0992834645410053
19.645224,6.204463970378389,0.0991063751529295
19.647612,6.206887275863255,0.0989289364518965
19.649992,6.211871760601979,0.0986972624151748
19.652392,6.206054345675701,0.0985799652721024
19.65478,6.200796009256865,0.0984312924309281
19.657164,6.202754679890776,0.09819151952974
19.65956,6.200057522725797,0.0979895895213272
19.661948,6.200153862240152,0.0977659155099088
19.664332,6.201321136941146,0.0975270583318713
19.666728,6.20877425313511,0.0972066307491948
19.669116,6.214365038209518,0.0969023539538967
19.6715,6.219024657724147,0.0966042649920181
19.673896,6.225034751679138,0.0962784739428687
19.676284,6.227040644141293,0.0959964567088762
19.678664,6.231048637349865,0.0956922026820174
19.681064,6.244135968730742,0.0952887574635116
19.683452,6.261507040858175,0.0948302097743523
19.685832,6.276084616306273,0.0943947101688597
19.688228,6.288799860634812,0.0939722158302316
19.69062,6.301003248284156,0.0935354938281617
19.693,6.31213570074686,0.0931162660173583
19.6954,6.326760498023201,0.0926440814332904
19.697788,6.342828317538517,0.0921841473702809
19.700168,6.367975475226141,0.0916280517871586
19.702564,6.395496820712518,0.0910780156647846
19.704952,6.416732324705922,0.090606254261599
19.707336,6.437967828699329,0.0901323022942123
19.709736,6.4565496056402605,0.0896722045227926
19.712124,6.475410921834912,0.0891994128163356
19.714504,6.491059432469648,0.088770937902617
19.716904,6.5068477127312425,0.0883365940147637
19.719292,6.528642295232089,0.0878493933241292
19.721672,6.545501510680324,0.0874064048529505
19.724072,6.565573531688473,0.0869254823171883
19.72646,6.585925091950344,0.0864322342968668
19.72884,6.597337083666768,0.0860201067999379
19.73124,6.605815809076998,0.0856347342270376
19.733624,6.613875225606648,0.0852698028071251
19.736008,6.629803275495104,0.0848452562181393
19.738404,6.6458710950104205,0.0844155451968196
19.740792,6.6583540219134845,0.0839993669402246
19.743176,6.667484373629772,0.0836293924789146
19.745572,6.677313573480361,0.0832286521562207
19.74796,6.680996701464839,0.0828852611446378
19.750344,6.683888433516398,0.0825416901083144
19.75274,6.690924136687652,0.082158971383938
19.755128,6.702615667657798,0.0817538463753849
19.757512,6.716960925680418,0.0813431432284034
19.759908,6.731957810009096,0.0809433424619842
19.762292,6.745883759151135,0.0805548878621628
19.764676,6.757807607546759,0.0801820892159614
19.767072,6.762374679262772,0.0798822919632605
19.769456,6.76880408209834,0.0795721844192758
19.77184,6.772020679373995,0.0792957875100006
19.774236,6.774678198142208,0.0790466546255125
19.776624,6.784924811015507,0.0787560667757878
19.779004,6.795171423888808,0.0784664512007793
19.781404,6.806628741575607,0.0781589670639151
19.783792,6.807144389970542,0.0779329104033042
19.786172,6.80630956392512,0.0777310245808796
19.788572,6.806917760118672,0.0775398539585214
19.79096,6.807945265192805,0.0773288237533813
19.79334,6.804269720639805,0.0771812660611333
19.79574,6.80366721201986,0.0770073749397212
19.798128,6.803204473026774,0.0768274346705445
19.800508,6.800599863660412,0.0766693690900591
19.802908,6.797203858361131,0.0765096463422692
19.805296,6.791945521942294,0.076357961745322
19.80768,6.78454531515018,0.0762269262647579
19.810076,6.779007439477623,0.0760882401246182
19.812468,6.775052355670902,0.0759547247816555
19.814848,6.773378911864318,0.0757931591310384
19.817244,6.774498964737068,0.0756205694018728
19.819632,6.779483449475793,0.0754265934775959
19.822016,6.789822610147709,0.0751837637713166
19.824412,6.796297338953652,0.0749636762933633
19.8268,6.804354859625432,0.0747504677963126
19.829184,6.815205876976547,0.0745283232698641
19.83158,6.832575053246109,0.0742806671880182
19.833968,6.853668891754785,0.0740204128726502
19.836352,6.875833665450101,0.0737500787268385
19.838748,6.897299591011114,0.073512506653712
19.841136,6.918905286198989,0.0732665420596264
19.84352,6.943304478066199,0.0730126188413194
19.845916,6.966492965119908,0.0727763908329151
19.848304,6.987819121054062,0.072546571438687
19.850688,7.005001305868522,0.0723499871124658
19.853084,7.022183490682981,0.0721541902316603
19.855476,7.0424387114304965,0.0719365869266838
19.857856,7.061111140312175,0.0717136793556163
19.860256,7.082065209193991,0.0714668131296846
19.862644,7.1076751058747,0.0712064490640154
19.865028,7.130211966622352,0.0709690015451934
19.867424,7.150746726623589,0.0707455012637221
19.869812,7.1639247099452135,0.0705823064159254
19.872196,7.176171527707061,0.0704221241302229
19.874592,7.182691582483379,0.0702857293240889
19.876984,7.1894911765134175,0.0701387484602823
19.879364,7.195918683491117,0.0699711183457263
19.881764,7.198621528229704,0.0698153558595046
19.884152,7.204117869647626,0.0696520410688236
19.886536,7.212827016625463,0.0694631574483117
19.888932,7.220604998043523,0.0692756612597473
19.891324,7.224518547595608,0.0691059988322795
19.893704,7.224567665281721,0.0689525516105631
19.8961,7.22540817890075,0.0688018888227665
19.898488,7.228530332519918,0.0686270657723235
19.900868,7.226577349459614,0.0684834774821466
19.903268,7.222901804906613,0.0683396080040861
19.905656,7.218015555540114,0.0682102072156611
19.908036,7.208193939121002,0.0681062713733267
19.910432,7.189060667104108,0.0680284347444368
19.91282,7.170486473594654,0.067925261680191
19.9152,7.148467157099807,0.0678193704954544
19.917596,7.124073652806206,0.0677021367053056
19.919984,7.098097356646769,0.0675766182586059
19.922368,7.07347153492769,0.0674282958515866
