Time,Force,Position
25.0764,2.6701991449215607,0.1916811772978625
25.078788,2.8714137997244604,0.1901932857094549
25.081167999999995,3.073652167885756,0.1888100849583431
25.083568,3.2778454149652254,0.1874945083319847
25.085956,3.4826902883507524,0.186374491526342
25.08834,3.689165175430359,0.1850542872899244
25.090736,3.899831255457903,0.1834798602603794
25.093124,4.109753161380771,0.1819909734383377
25.095503999999995,4.3124599561087615,0.1807897143123465
25.0979,4.508557939977556,0.179569905096923
25.100287999999995,4.6973954866810965,0.1784025769560517
25.102671999999995,4.876690956219246,0.1774750559781791
25.105068,5.046025039711423,0.1767368777781946
25.107456,5.204559119396467,0.176267328985963
25.109839999999995,5.351269481915982,0.1760004405773056
25.119404,5.842454051198916,0.1759132147918231
25.121792,5.953277745057004,0.1758372253939022
25.124172,6.062101234026544,0.175682312381026
25.126572,6.170088001092792,0.1754520077689495
25.12896,6.282825039614417,0.1750555599188439
25.13134,6.395796291419391,0.1745769594656877
25.13374,6.506580346880712,0.174088974580274
25.136128,6.617691163423999,0.1735582360877936
25.138511999999995,6.723122438809996,0.1731216695853798
25.140908,6.825527900091181,0.1727205697158686
25.143296,6.930634310253084,0.1722479965898737
25.145679999999995,7.041467483400516,0.1716888942016451
25.148076,7.15136949098817,0.1711530417489473
25.150464,7.25861777152335,0.170662584264315
25.152844,7.365121877953856,0.1701422357339143
25.155244,7.473722528787262,0.169518062702077
25.157632,7.583069249583215,0.1688263501797497
25.160012,7.687295507729322,0.1681617735555973
25.162412,7.786820612106164,0.1675020418546855
25.1648,7.884717598646794,0.1667965112407997
25.16718,7.979263905858518,0.1660670830289384
25.169584,8.06301020926311,0.1654394068603015
25.171972,8.14061233665946,0.1648383985045203
25.174356,8.21085958323407,0.164281812155822
25.176752,8.270167056374685,0.1638301667234656
25.17914,8.320908943880063,0.1634501169122403
25.181524,8.366809907989312,0.1630845313521461
25.18392,8.4080097183293,0.162729045180365
25.186308,8.4442288356463,0.1623897286121325
25.188692,8.479890770313727,0.1619848403161796
25.191088,8.508430141584892,0.1616381321049665
25.193476,8.526913683153598,0.1613929961313795
25.19586,8.544141193938433,0.1611133207360379
25.198256,8.559181508379615,0.1608101044257585
25.200644,8.573477648716123,0.1604805373497144
25.203024,8.579533068641487,0.1602568924784806
25.20542,8.582003595954598,0.1600767594966227
25.207808,8.587175072148424,0.1598328525485886
25.210192,8.59476795796925,0.1595386769218201
25.212592,8.600498512670518,0.1592698470623388
25.21498,8.604226966625369,0.1590318442432378
25.21736,8.611680082819335,0.1587464272145609
25.21976,8.615128997520468,0.1585215705134733
25.222148,8.619928386661957,0.1582649934456576
25.224532,8.62244613580331,0.1580516290538948
25.226932,8.624032719384884,0.1578496208231017
25.229323999999995,8.62524721591412,0.1576337548835827
25.231704,8.623668215764022,0.1574540902497595
25.2341,8.6254417908007,0.1572129531377251
25.236488,8.62493372583724,0.1570161013938026
25.238868,8.628290092739753,0.1567667207047861
25.241268,8.634719495575322,0.1564692731900208
25.243656,8.640729589530311,0.1561922512522344
25.246036,8.649393410537774,0.1558879500243252
25.248435999999995,8.658569088224436,0.1555932951096293
25.25082,8.67254036333685,0.1552351825419948
25.253204,8.685440703262623,0.1548944775152316
25.2556,8.696850799121178,0.1545917775368089
25.257988,8.707841586099153,0.1543097323355027
25.260368,8.719623769010045,0.1540236293436942
25.262768,8.736481088600408,0.1536651084604992
25.265156,8.749194437071077,0.1533703238261228
25.26754,8.767774318154139,0.1529972387070465
25.269936,8.787936991103036,0.1526167592471667
25.272324,8.813035031104546,0.1521701251418139
25.274704,8.841997502972028,0.1516742801254901
25.277104,8.87040089633207,0.1512045581045629
25.279492,8.899455915998171,0.1507361467666513
25.281872,8.924087425290859,0.1503432778075822
25.284268,8.94564589865049,0.1499948451244051
25.286656,8.96119806977087,0.1497305522846278
25.28904,8.979683507197446,0.1494310102995229
25.291436,8.996306613504464,0.1491528869370718
25.293824,9.011858784624843,0.1488934813555983
25.296204,9.02354652387925,0.1486828017253591
25.298604,9.0321612272006,0.1485166882963675
25.300992,9.045990836828285,0.1482749337960897
25.303376,9.063033252015886,0.1479853837736231
25.305772,9.078073566457066,0.1477228329395019
25.30816,9.094604124965468,0.1474279771129803
25.310544,9.107130481981036,0.1471885484636142
25.31294,9.120588004556383,0.1469377691919308
25.315328,9.13283482231823,0.1467115544308728
25.317712,9.142427913027602,0.1465101152479822
25.320108,9.146294240751445,0.1463748450171157
25.322496,9.151231503661926,0.1462249281669615
25.32488,9.15845040657254,0.1460383111654973
25.327276,9.16902188466994,0.1458001980228746
25.329664,9.184668499446808,0.1454965591948435
25.332044,9.204598854970229,0.1451310854094545
25.33444,9.230535512732898,0.1446901737215237
25.336828,9.25046586825632,0.1443265666444627
25.339224,9.272398324526156,0.1439380998109992
25.341619999999995,9.293539384863076,0.1435545678116896
25.344008,9.321757682625885,0.1430840171718152
25.346388,9.350115750015554,0.1426063837716417
25.348787999999995,9.374329846285528,0.1421879692164008
25.351176,9.395470906622448,0.1418117886212474
25.353556,9.419545233265564,0.1414027780572945
25.355952,9.439847675841316,0.1410628358546218
25.358339999999995,9.459079183230436,0.1407378429059421
25.36072,9.481803035433192,0.1403580690424161
25.363116,9.49880012465042,0.1400383062418982
25.365504,9.516728379427422,0.13970946271616
25.367884,9.537450130883762,0.1393516959949472
25.370283999999995,9.555098846407049,0.1390352196727408
25.372672,9.570465921930191,0.1387554435018444
25.375052,9.58327181819948,0.13852405091289
25.377448,9.593935844095494,0.1383233532512684
25.379836,9.602457999618228,0.1381525341794144
25.38222,9.606324327342069,0.1380262993816418
25.384616,9.612984151745248,0.1378734318703671
25.387004,9.617921414655727,0.1377327637544354
25.389384,9.624581239058909,0.1375806815810893
25.391784,9.626165926782614,0.1374897004133914
25.394168,9.631615046372293,0.1373591564311071
25.396564,9.633991130028914,0.1372650474899897
25.39896,9.635715587379478,0.1371684821841524
25.401347999999995,9.638650749543544,0.1370530482859303
25.403724,9.644286860588323,0.1368877216031717
25.406123999999995,9.657139978685858,0.1366379326072452
25.408508,9.668642622343029,0.1364144860103008
25.410892,9.68615156823945,0.136124613808291
25.413284,9.704731449322512,0.1358221835938386
25.415672,9.726663905592352,0.135475864798154
25.418067999999995,9.746594261115773,0.1351504954907
25.420464,9.767083695146637,0.1348041691099188
25.422848,9.786130106938522,0.1344581610840799
25.425232,9.805456057984124,0.1341026750509315
25.427627999999995,9.82692387940301,0.1337219386732425
25.430012,9.851185197501229,0.1333171539224969
25.432396,9.877076529293523,0.1328803735941543
25.4348,9.90375925701874,0.1324409234889816
25.437187999999995,9.930069897691618,0.1319912504999155
25.439568,9.95237633687166,0.1315815743776685
25.441963999999995,9.970166717879676,0.1312076073013607
25.444352,9.99424294038066,0.1307601209224024
25.446732,10.01911055881456,0.1303104104779281
25.449128,10.038391183889791,0.1299089672193635
25.451516,10.057392269711302,0.1295200997732448
25.453912,10.066894708479929,0.1292447742571384
25.456308,10.078399247994971,0.1289507538140218
25.458696,10.088972621950234,0.1286659494817271
25.461075999999995,10.098335291092,0.1283997346837467
25.463472,10.106487255420266,0.1281534377618521
25.46586,10.118783190868228,0.1278624803491792
25.46824,10.134664018928438,0.1275496664713942
25.470635999999995,10.149473911802014,0.1272484413356896
25.473024,10.164842883183027,0.1269285013211315
25.475404,10.177418357884708,0.1266312218962941
25.4778,10.18906266702661,0.1263418561217085
25.480187999999995,10.195492069862182,0.1261086078049042
25.482572,10.204063343071027,0.1258518803394586
25.484968,10.208350875533323,0.1256435033554334
25.487355999999995,10.219203788742306,0.1253571481264381
25.489752,10.231919033070843,0.1250565686867124
25.492148,10.241840780720052,0.1247788150805493
25.494536,10.253764629115674,0.1244832744908626
25.496915999999995,10.27048407493705,0.1241485799443303
25.49932,10.284410024079088,0.1238346406124474
25.501708,10.302107857288483,0.123463965761948
25.504088,10.311145661206156,0.1231648555982282
25.506484,10.317389968444491,0.122886616631276
25.508872,10.320980548630349,0.1226233980005705
25.511251999999995,10.315771329897624,0.1224368717276935
25.513648,10.307116988179509,0.122267880581372
25.51604,10.290873552356304,0.122158933788095
25.518419999999995,10.278262230973596,0.1219986219109312
25.520816,10.261506938471191,0.12188027679885
25.523204,10.242889314849236,0.1217752387831445
25.525584,10.223759834548076,0.1216613301140934
25.527988,10.207703390179976,0.1215165343677861
25.530376,10.188341592453344,0.1213831666523849
25.53276,10.172052830659764,0.1212189772154852
25.535156,10.150549162559855,0.1211083534454574
25.537544,10.129185264086804,0.1209920325803813
25.539924,10.106890200053977,0.1208817187297356
25.54232,10.081150013035757,0.1207871788218639
25.544708,10.05061422859178,0.1207300901028457
25.547088,10.023570788961443,0.1206269549461111
25.549488,9.991591982278493,0.1205663832554238
25.551876,9.966830182648293,0.1204338201857004
25.554256,9.94313931820473,0.1202889449190768
25.556652,9.923871964134582,0.1200915171714187
25.55904,9.913823717863602,0.119803294870024
25.561419999999995,9.906568968271957,0.1194950281229698
25.56382,9.901456089053587,0.119161921626956
25.566203999999995,9.891128303528884,0.1188815871730778
25.568587999999995,9.88480471949702,0.1185642421988557
25.570984,9.881554171398207,0.1182163016144501
25.573368,9.878303623299397,0.1178680735647264
25.575768,9.872678887401827,0.1175234626088912
25.578164,9.868916482623815,0.1171655555781904
25.580552,9.862779890047053,0.1168110618615409
25.582932,9.860275411910782,0.116405883740767
25.585332,9.858050473028236,0.1159909590912745
25.58772,9.852240641533434,0.1155947021662172
25.5901,9.846570579665492,0.1151922573109813
25.5925,9.84346169705141,0.1147503306332054
25.594888,9.835417447384716,0.1143497366866683
25.597268,9.833798808837852,0.1138792605134504
25.599668,9.828315738425012,0.1134388166295158
25.602052,9.82232081133298,0.1129884498133766
25.604432,9.81232168274811,0.1125727706456413
25.606828,9.799529057483907,0.1121758788625948
25.609216,9.781149438861032,0.1118143531085531
25.6116,9.762909589865018,0.1114463801497526
25.613996,9.7488137119887,0.1110372723895192
25.616384,9.731132941500126,0.1106464922395649
25.618763999999995,9.70958773914558,0.1102836573881138
25.62116,9.68510927048484,0.1099425091697172
25.623552,9.660351262570378,0.1096098298003933
25.625931999999995,9.63345138428264,0.1092983755471631
25.628328,9.606132197114318,0.1090007960952322
25.63072,9.573458334012807,0.1087577364158309
25.633099999999995,9.535709334231823,0.1085591810544684
25.6355,9.501684996689953,0.1083348384926523
25.637888,9.465099479894224,0.1081479386342146
25.640267999999995,9.42474207903114,0.1080150480218324
25.642668,9.389040505966946,0.1078500569405488
25.645056,9.349427279208538,0.1077437294394619
25.64744,9.31232800987574,0.1076286998342971
25.649844,9.274669662035503,0.1075334276204839
25.652228,9.2398048108746,0.107418649567887
25.654608,9.201866923780642,0.1073311673290958
25.657004,9.168445094858718,0.107218038671812
25.659392,9.136885597056349,0.1070914692881272
25.661772,9.1031842288807,0.1069858757713231
25.664172,9.069994717384253,0.1068893318696508
25.66656,9.043602904059968,0.1067394758221748
25.66894,9.024008788907857,0.1065370930671884
25.671336,9.00827910562172,0.1063054216258508
25.673724,8.995342919014915,0.1060559830092338
25.67612,8.985200229087445,0.1057886265310942
25.678516,8.981575698078425,0.1054804585181047
25.680903999999995,8.983258621174352,0.1051474150021302
25.683288,8.985825488001815,0.1048404657937584
25.68568,8.995841679307507,0.104487846865743
25.688068,9.012376029531644,0.1040949162055695
25.690452,9.024998726061568,0.1037617507566155
25.692848,9.039343984084184,0.1034217341356274
25.695236,9.0554118035995,0.1030772227605584
25.697616,9.076787077219764,0.1027109427388517
25.700012,9.097323733078866,0.1023772561390716
25.7024,9.124890404535616,0.1020155567797189
25.704784,9.152829163044702,0.1016708613609981
25.70718,9.179137907859712,0.1013587186441221
25.709568,9.207681070846617,0.1010514775294122
25.711952,9.23952958719205,0.100738681794011
25.714348,9.267745989096989,0.1004766637517434
25.716736,9.292470046188292,0.1002595475763781
25.719116,9.316355485518434,0.1000750908493322
25.721512,9.3368883496618,0.0999276695803974
25.7239,9.361285645671138,0.0997562474624049
25.726284,9.386474337613397,0.0995871554341279
25.72868,9.413013503996012,0.0993993820570204
25.731068,9.440810597020374,0.099167285265349
25.73346,9.463579775193503,0.0989465773740057
25.735855999999995,9.481041499261682,0.0987460189158241
25.738244,9.499341841091024,0.0985137823621652
25.740628,9.518341031054666,0.0982568151960883
25.74302,9.534546724338972,0.0980155227662439
25.745408,9.54665566833183,0.0977800371642693
25.747792,9.556390424525931,0.0975432310935208
25.750188,9.561888661801724,0.0973166986848264
25.752576,9.566875042398316,0.0970803337585715
25.754956,9.574422602248768,0.0968096880325775
25.757352,9.58252924060666,0.0965199805723047
25.759744,9.586399360046242,0.0962387848923917
25.762124,9.586684586873568,0.0959704253506307
25.76452,9.58617841776798,0.0957016403029099
25.766908,9.588652736796828,0.0953848924574774
25.769292,9.592477530266036,0.0950476818147473
25.771692,9.590575560749713,0.0947443384622142
25.77408,9.5840177634345,0.0944643389209328
25.776464,9.57387507350703,0.0941975787888383
25.778856,9.561310973952564,0.0939593927156198
25.781244,9.551260831823717,0.0937173320821231
25.783628,9.546425596001196,0.0934332356832921
25.786024,9.542940834619037,0.0931293697201264
25.788412,9.53745397249046,0.0928387943551453
25.790796,9.535599224802382,0.0925063434529301
25.793192,9.532533772300804,0.0921873432907417
25.79558,9.53389183017264,0.0918265556220659
25.797964,9.533108017671198,0.0914830050190542
25.80036,9.529950017371004,0.0911367285311658
25.802751999999995,9.526792017070807,0.0907914434665991
25.805132,9.522982390464554,0.0904411407468309
25.807532,9.524387670164632,0.0900511898809208
25.809916,9.533289496171182,0.0895994018173982
25.8123,9.545543897364508,0.0891177206193454
25.814696,9.55286293150522,0.0886671931376378
25.817084,9.563394771205848,0.0881921407330757
25.819479999999995,9.574857776466256,0.0877124949268699
25.821876,9.588742191353658,0.087205993323181
25.824264,9.601415901427565,0.086711360467041
25.826644,9.61222728038191,0.0862229926885805
25.829048,9.620524701910645,0.0857366918691417
25.831436,9.624398613065964,0.085290314480685
25.833815999999995,9.63278858239332,0.0848328948267354
25.836212,9.643180652467086,0.0843635288475293
25.838604,9.64728688104788,0.0839396945172309
25.840983999999995,9.652464044815316,0.0835068390049087
25.843384,9.65722189970217,0.0830901252002068
25.845768,9.663190459402523,0.082658784666552
25.848151999999995,9.670741810968716,0.0822293100949202
25.850548,9.671355694735876,0.081836746048931
25.852936,9.667825607383344,0.0814712467647978
25.855316,9.658149448164702,0.0811448364342725
25.857716,9.638602554840832,0.08086976741061
25.860104,9.606670969986126,0.0806452481163012
25.862484,9.568500765466691,0.0804315016779824
25.864884,9.51822540867014,0.0802583538279739
25.867272,9.460687718850464,0.0800720768246107
