Time,Force,Position
24.31576,2.7609738909857984,0.2181647820556228
24.318156,2.980439769931928,0.213388788596272
24.320544,3.202466828131915,0.208318645586167
24.322928,3.424820647413865,0.2032926884536043
24.325332,3.650062407031637,0.1983784631721792
24.327720000000003,3.866878350641029,0.1944665084999433
24.3301,4.080762923802096,0.1910281072068549
24.332504,4.286129133156167,0.1882380278476758
24.334892,4.482884430904626,0.1858926552700294
24.337272,4.671028817047473,0.1837711247221336
24.339668,4.84297319747962,0.1821813496126499
24.342056000000003,5.006446435933015,0.1807622206774927
24.344436,5.156373395728184,0.1797104978524701
24.346832000000003,5.295827112798183,0.1788092114956287
24.34922,5.425319443822212,0.178090778215078
24.3516,5.548854590293102,0.1774345770363522
24.354000000000003,5.660938106650801,0.1770025506311276
24.356388,5.764643028828365,0.1766291039867422
24.358768,5.862343544624547,0.1763092038910951
24.361164,5.952968718852709,0.176064890474379
24.363552,6.039823904871383,0.1758203082673324
24.365932,6.118904901187737,0.1756879541591448
24.368328,6.199151276347215,0.175444283147041
24.370716,6.283216757402294,0.1750534306772756
24.3731,6.362394093233004,0.1747484020142955
24.3755,6.445622852384791,0.1743145184483691
24.377884,6.525174171125708,0.1739262276151704
24.380268,6.603282467627648,0.1735488872926112
24.382664,6.67966820263689,0.1732040377166954
24.385048,6.756473246526713,0.1728346547132525
24.387432,6.83742226153623,0.1723622357994816
24.389824,6.915997088746992,0.1719195554292231
24.392212,7.001137296704446,0.1713354546437328
24.394592,7.0892579927963375,0.1706618630005361
24.396984,7.175284040343196,0.1700014529084697
24.399372,7.254419841919269,0.1694545309401808
24.401748,7.327876102338054,0.168966744887129
24.404164,7.405663325331639,0.1683541688429405
24.406552,7.478841942354573,0.1677887369467815
24.408948,7.551695694153413,0.1671833842175724
24.41134,7.6237127240489615,0.1665272754794832
24.413728000000003,7.691819996108162,0.1658704550697833
24.416108,7.751873539211322,0.1653058438563322
24.418504,7.800800317425383,0.1648896109706053
24.420892,7.844094776310402,0.1644923906170317
24.423272,7.883339707732214,0.1641092277610421
24.425668,7.919186737996876,0.1637338716047085
24.428052,7.955919607850941,0.1632830216980599
24.430448,7.990465281361356,0.1628095539330962
24.432844,8.024034463341618,0.1622882973211927
24.435228,8.058489484911284,0.1616954413364144
24.437608,8.092340102003138,0.1610671843529786
24.440004,8.116786515698589,0.160549528089052
24.442392,8.137136180102592,0.1600735687448709
24.444772,8.155950274469,0.1595744438435895
24.447168,8.174159964357594,0.1590390132501478
24.449556,8.197352243127042,0.1583910128033763
24.451956,8.208579139246233,0.1579010132671035
24.454352,8.219993026820527,0.1573697402968317
24.456736000000003,8.224888755476373,0.1569277936100222
24.45912,8.224057721146687,0.1565682053892096
24.461512000000003,8.223366456443864,0.1562012030007913
24.4639,8.22309450062162,0.1558130985880298
24.46628,8.22245045774704,0.1554080053094345
24.468680000000003,8.224739681178654,0.1549584375589859
24.471068,8.223444011998016,0.1545525349869662
24.473448,8.220565550951541,0.1541571990399614
24.475852,8.213450570986755,0.1538034322486167
24.478236,8.20689466952941,0.1534222994237144
24.48062,8.197917358445068,0.1530927012114563
24.483016000000003,8.184144449934973,0.1528296356646453
24.4854,8.167578044745543,0.1526015508254969
24.487784,8.149800934742613,0.1523984803647168
24.49018,8.126297061754157,0.1522747721703045
24.492568,8.102513649511977,0.1521638309007325
24.494964,8.07737976282944,0.1520847356714119
24.49736,8.048893300960126,0.1520672854255738
24.499748,8.032279673942453,0.1518704481249257
24.502128000000003,8.012453241364865,0.1517292084894156
24.504532,7.993977283227635,0.1515548565011178
24.50692,7.978714130650322,0.1513229385530869
24.5093,7.964382143632786,0.151078423861964
24.511704,7.95070178292131,0.150835048307622
24.514092,7.939395610008586,0.1505757623161927
24.516476,7.926087336349446,0.1503468033675983
24.518872,7.913011380115784,0.1501399371172427
24.52126,7.900167741307599,0.1499552790077247
24.52364,7.884343614364974,0.1498500466050872
24.526036,7.864095977048937,0.1498276258368151
24.530804,7.820667436110666,0.1498265774019392
24.5332,7.801583281779884,0.1498149415487896
24.535592,7.785432393755296,0.1497594831634915
24.537972,7.7748684990893775,0.1496303687866172
24.540368,7.762302503677044,0.1495329853702666
24.542756,7.752390235317185,0.14940512099606
24.545136000000003,7.745690772517242,0.1492184311782246
24.547536,7.73084313710477,0.1491644229239394
24.54992,7.72172226467783,0.1490299896868335
24.5523,7.712182083370307,0.1489163744332385
24.5547,7.700220492435786,0.1488550460100861
24.557088,7.691471707061182,0.1487355473191167
24.559468,7.680581051313301,0.1486538178510217
24.561872,7.670621561125198,0.1485598090896706
24.56426,7.662524402056652,0.1484417420173131
24.56664,7.654706782241826,0.1483094434907797
24.569036,7.650241737613777,0.1481135788272065
24.571424,7.652062534478698,0.1478113754102321
24.573808,7.65811985026193,0.1474698729375945
24.576204,7.666691123470778,0.1471068617489708
24.578592,7.680989159665155,0.146666559364638
24.580972,7.6955667351132515,0.1462145256082945
24.583364,7.708002440188071,0.145799388492002
24.585748,7.724442346755727,0.1453278400969818
24.588144,7.745677850749133,0.1447918570513965
24.59054,7.765051023622981,0.1442800654379696
24.592928,7.779069520563637,0.1438609909405092
24.595308,7.79359987418349,0.1434480028765234
24.597712,7.800913220750596,0.1431511944036989
24.6001,7.810880294370176,0.1428265343958441
24.60248,7.8208473679897565,0.1425000031235987
24.604876,7.824249060862645,0.1422932755141899
24.607264,7.82951308485509,0.1420627725604966
24.609644,7.833845943287756,0.1418445715247254
24.612048,7.836036931347145,0.1416638257562056
24.614432,7.841021416085869,0.1414491268670201
24.616816,7.840651224891401,0.1413267329372295
24.619212,7.840141264070073,0.1412119855967789
24.621596,7.840330151383046,0.1410629303762058
24.62398,7.838796477203322,0.1409293779791533
24.626376,7.835120932650321,0.1408321838145047
24.628764,7.83144538809732,0.1407350289175842
24.631148,7.830703109850515,0.1405982231277796
24.633552,7.823954529364459,0.1405470245646558
24.635936,7.815203848131985,0.1405236944508446
24.63832,7.806173627645792,0.1405139748093762
24.640716,7.801007839025572,0.1404545029815739
24.643104,7.79719252484571,0.140363670845277
24.645484,7.799523282531961,0.1401800838774432
24.647888,7.801993809845069,0.139990337161025
24.650272,7.811401804957208,0.1397066161577857
24.652652,7.823882836002402,0.139375629042523
24.655056,7.836363867047598,0.1390449751546608
24.657444,7.851778164398986,0.1386782169016402
24.659828,7.869054792869933,0.1382906527607018
24.662224,7.883677694288404,0.1379296878509657
24.664612,7.903375732386347,0.1374953399801564
24.666992,7.917858864177957,0.1371404504603022
24.669388,7.929920586342571,0.1368342591841017
24.671776,7.945846740373159,0.1364815623193816
24.674156,7.95897939772441,0.1361598640018133
24.676556,7.967688544702248,0.1359126401420307
24.678944,7.975466526120307,0.1356766635800471
24.681324,7.986177773844561,0.1354028072447916
24.68372,7.998751352688372,0.1351098488237726
24.686108,8.01346680190546,0.1347833025983894
24.688488,8.026459689629851,0.1344711125940275
24.690888,8.044248174779996,0.1341040524388402
24.693272,8.060825955116641,0.1337629956953714
24.695656,8.077543505080145,0.1334175446683161
24.698052,8.089977314297098,0.1331414690072916
24.70044,8.102690662767769,0.1328530000075512
24.702824,8.116754485678799,0.1325367086441178
24.70522,8.126814107096996,0.1322732705045847
24.707608,8.138084433328691,0.1319893006021592
24.710004,8.14800428512003,0.1317331590259679
24.7124,8.159274611351725,0.1314514458071668
24.714788,8.174828678329973,0.1311061453140206
24.717168,8.191593450121722,0.1307384917249779
24.719564,8.203562624487718,0.1304252707576224
24.721948,8.219396230719688,0.1300690381366254
24.724332,8.238861951392154,0.1296451357427171
24.726736,8.259398607251258,0.1292074161200008
24.72912,8.278072931990806,0.1287890900593591
24.731504,8.292882824864382,0.128414550725817
24.7339,8.30597015624526,0.128052859683445
24.736288,8.32306168911897,0.1276443921710457
24.738668,8.334286689380292,0.1273044604562202
24.741064,8.347001933708833,0.1269330431351042
24.743452,8.359577408410512,0.1265697235872137
24.745832,8.370849630500077,0.1261996967840787
24.748232,8.380911147776143,0.1258508708531903
24.75062,8.390693125798489,0.125516178230947
24.753,8.401825578261192,0.125154502788624
24.755396,8.40616033255173,0.1248647416460855
24.757784,8.415849762775458,0.1245019711172163
24.76018,8.421395221879491,0.1241935000880809
24.762576,8.424938580237109,0.1239085058197734
24.764964000000003,8.428481938594727,0.1236238042017334
24.767344,8.43481879363168,0.1233138526383972
24.769744,8.438641691243017,0.1230176765831668
24.772132000000003,8.444326919973912,0.1227063825080391
24.774512,8.450012148704806,0.1223964329483474
24.776908,8.459561809301674,0.1220494201784046
24.779296,8.4704619443389,0.1216754334012918
24.78168,8.482293244935907,0.1212937055551111
24.784076,8.488397782547382,0.1209670320883066
24.786464,8.495852794599218,0.1206135029148907
24.788844,8.497441274038662,0.1203198908612144
24.791248,8.49772650086599,0.1200185493694672
24.793636000000003,8.49708056213354,0.1197245227315879
24.796016,8.496993701908531,0.1194060404678273
24.79842,8.493461718698128,0.1191066254131725
24.800808,8.486065303621753,0.1188437821480764
24.803188,8.484675190784628,0.118514297829485
24.805584,8.47956041570839,0.1182171800330741
24.807972,8.475796115072509,0.1178940382899383
24.810352,8.473382288876989,0.1175449849750937
24.812752,8.474460807495104,0.1171446872822678
24.815136,8.474096303874243,0.1167421281769655
24.81752,8.471729699506966,0.1163593598913534
24.819916000000003,8.463496562527297,0.1160333125476058
24.822308,8.452609698495154,0.1157234895722972
24.824688,8.43641538035806,0.1154461904228252
24.827084000000003,8.42394572446008,0.1151392881235165
24.829472,8.41189537744268,0.1148143227517748
24.831852,8.402498757477755,0.114472505240131
24.834248,8.395895634192165,0.1141092748890873
24.836636,8.394879504265244,0.1137022412287455
24.83902,8.39516662695044,0.113304963502641
24.841424,8.39931818150161,0.1128741135182873
24.843812,8.404772988664893,0.112453240787339
24.846192,8.41567501955999,0.1119970516151828
24.848588,8.434166144560171,0.1114805240949404
24.850976,8.451586334373715,0.1109788850535869
24.85336,8.471380711986013,0.110476281817175
24.855756,8.488893449598171,0.1100047701542409
24.858144,8.50584710870289,0.1095575843247396
24.860528,8.520239588553752,0.1091564721794586
24.862924,8.536354629897309,0.1087494296570703
24.865312,8.555123398293343,0.108327622844329
24.867692,8.57868776411513,0.1078663686967141
24.870092,8.601832821056332,0.1074208703343228
24.87248,8.627352065796293,0.1069725631014327
24.87486,8.64900687867028,0.1065591217636004
24.877264,8.670894008969743,0.1061700022227987
24.879652,8.695993944829121,0.105747945977372
24.882032,8.719883175875003,0.1053467985010952
24.884428,8.738557500614549,0.1049994604100586
24.886812000000003,8.756812516473516,0.10467026738163
24.889192,8.773809605690744,0.1043937545029103
24.891596,8.794531357147081,0.1040957546903936
24.893984,8.81110913748373,0.1038399530095866
24.896364,8.821401076327403,0.103648830991837
24.898768,8.83513813815647,0.1034466140321914
24.901156,8.846453790358538,0.1032786800229661
24.903536,8.861214565546,0.1030985061617233
24.905932,8.876906506293242,0.1029130303939695
24.90832,8.891387742226982,0.1027448314305541
24.9107,8.906101295586202,0.1025992356164695
24.913096,8.925330907117454,0.102432267682007
24.915484000000003,8.947214245701177,0.1022560867136139
24.917864,8.974824347270433,0.1020424136656243
24.920260000000003,9.004017240705524,0.101829550960793
24.922648,9.032511286006317,0.1016428178487147
24.925032,9.061936496866885,0.1014520884818872
24.927428000000003,9.085587722913678,0.1013318692793578
24.929812,9.110170114520251,0.1012076706481218
24.932212,9.14411138355285,0.1010002792035937
24.934604,9.176889169600196,0.1007779191587225
24.936992,9.20813138560995,0.1005248628870584
24.939372,9.23434568676847,0.1002853056074632
24.941776,9.264843728673544,0.1000057681933726
24.944164,9.301627612071597,0.0996709791144688
24.946544,9.333243810991554,0.0993536419117632
24.94894,9.365978166926396,0.0989959532905944
24.951328,9.3966178743162,0.0986293663228079
24.953708,9.42981876095986,0.0982309919682635
24.956104,9.463718495737828,0.0978083107264301
24.958492,9.49473218603784,0.0973756774867216
24.960876000000003,9.51685352962065,0.0969776584563635
24.963272,9.535669519844928,0.0965868966700875
24.96566,9.554392962270589,0.096175727999568
24.96804,9.57395502245741,0.0957376890260529
24.970436000000003,9.595566405218891,0.0952555011873791
24.972824,9.617085240181757,0.0947513755081514
24.97522,9.645076908092696,0.094162754432463
24.977616,9.669763222645102,0.0935787608607777
24.98,9.686720673465564,0.0930440693538523
24.982384,9.70675116021908,0.092489032318118
