Time,Force,Position
23.504312,3.10188605654154,0.1934612646017003
23.506696,3.325078493584652,0.1899022838582641
23.50908,3.5433846812612635,0.1866663477527586
23.511476,3.756664849944515,0.1836585465406029
23.513864,3.96426737332835,0.1809313627756174
23.516244,4.1656803947335685,0.1786096671101824
23.518648,4.357039482294199,0.1765420404249937
23.521035999999995,4.537693009704181,0.1748102270099926
23.52342,4.705638876217101,0.1733243732830812
23.525816,4.861668477765875,0.1719583698300046
23.528203999999995,5.008435541402978,0.1706963777948281
23.530584,5.1452412189941095,0.1696365673156411
23.532984,5.272225280166129,0.1686857205910605
23.535371999999995,5.38668677603832,0.1679664993761327
23.537752,5.493421304036431,0.1673728691575986
23.540152,5.592149324906747,0.1668861880266756
23.542539999999995,5.686036422380934,0.1664291394021524
23.54492,5.771590251645361,0.1661267002329466
23.547315999999995,5.852395705312281,0.1658926287957409
23.549707999999995,5.928173244127972,0.1657522847983204
23.554483999999995,6.068881096123978,0.1656703534903484
23.556875999999995,6.14018979859588,0.16560858803849
23.559256,6.211126414015444,0.1655334371808748
23.56404,6.347786634406112,0.1654124955304057
23.566424,6.4153725704967695,0.1653247228273257
23.568824,6.480724088415534,0.1652566447675431
23.571212,6.54705399372232,0.1651260692160975
23.573596,6.6231620853357125,0.1647744479387655
23.575992,6.699037859523628,0.16440107422934
23.57838,6.772307128487312,0.164029241426739
23.580763999999995,6.845903158532959,0.1635998884197704
23.58316,6.9213161937277885,0.1630621179882868
23.585548,6.991189457392193,0.1625853685032828
23.587928,7.058316446205505,0.1621178025113485
23.590328,7.122697160167725,0.1616534076091676
23.592716,7.1836799729727945,0.1611855308145428
23.595099999999995,7.245408855740407,0.1606436039272852
23.652452,7.626107867394426,0.1605703683278297
23.654848,7.64589086985951,0.1605254564151911
23.657236,7.670469469750346,0.1604052080380906
23.65962,7.70333601188057,0.1601372424308104
23.662016,7.735131618824154,0.1598912693917101
23.664404,7.766275599461681,0.159645858108725
23.666788,7.797419580099207,0.1594052629350781
23.669188,7.838853603722539,0.1589837627537461
23.671576,7.879728548838429,0.1585953422909663
23.673956,7.921674429140959,0.1581876378648614
23.676356,7.966833115003402,0.1577233237123504
23.678744,8.01134017455979,0.1572605041724968
23.681124,8.061062140422509,0.1567050017881921
23.68352,8.110412019232891,0.1561384330442333
23.685908,8.155245839871242,0.1556352041547557
23.688292,8.199195716778055,0.1551189521251952
23.690688,8.242913276259394,0.1545864813457194
23.693076,8.284256647941978,0.1540755010835068
23.69546,8.321363500706251,0.1536084146800135
23.697856,8.359960597537741,0.1531020435899177
23.700244,8.400187708063314,0.1525500415586866
23.702628,8.436457838924294,0.152029873197527
23.705024,8.475149379412272,0.1514664821924591
23.707416,8.50811415691472,0.1509862875214671
23.709796,8.539915451431913,0.1504964880897033
23.712196,8.573206990016326,0.1499735137755169
23.714583999999995,8.601191074495786,0.1495058577341434
23.716968,8.625450496736136,0.149088920574652
23.719364,8.648686205618088,0.14865750674306
23.721751999999995,8.670339122634205,0.1482357283537171
23.724132,8.68854691666493,0.1478471616710207
23.726528,8.707174019576234,0.147441391809212
23.728916,8.725568805062062,0.1470190688848033
23.731296,8.740890554614834,0.1466411142864005
23.733692,8.751416706741855,0.1463205523803301
23.73608,8.758078427002902,0.1460507972373438
23.73846,8.761155254651694,0.1458176414081303
23.740856,8.762649290434654,0.1455932755744025
23.743244,8.762700303978635,0.1453707871047697
23.745628,8.762658769723998,0.1451215301654239
23.748024,8.762384918043887,0.1448519153697258
23.750412,8.761179900803995,0.1445926748240829
23.752796,8.752805098339598,0.1444040037407159
23.755192,8.741916338449588,0.1442335416680966
23.757584,8.731307117813296,0.1440500226907444
23.759964,8.715902299751253,0.1439240350158843
23.76236,8.701568416875848,0.1437811333339199
23.764752,8.68486034620169,0.1436499027962444
23.767132,8.665358778848196,0.1435491443103619
23.769528,8.646276520375281,0.1434288367967037
23.771916,8.627613570782948,0.1432887344507309
23.776696,8.571943899656437,0.1432012332670625
23.779084,8.540012314801732,0.1431843755818609
23.781468,8.513575175507077,0.1430770016572853
23.783868,8.48234243878667,0.1430297680891488
23.786256,8.451529010946846,0.1429623831425525
23.788636,8.421274661614463,0.1428674738684414
23.791036,8.391439621162661,0.142752244552092
23.793424,8.36053364552422,0.1426519374574903
23.795808,8.3274857995125,0.1425838829082227
23.798204,8.294065866448445,0.1424989624101205
23.800592,8.263718969317445,0.1423687206254166
23.802972,8.235653712186583,0.14219693594765
23.805375999999995,8.203444483936023,0.1420867856226745
23.807764,8.174587830872241,0.1419171939078876
23.810148,8.148012817808597,0.1417054322297167
23.812543999999995,8.120227099931453,0.1415164972856513
23.814932,8.094443482800727,0.1412986497728005
23.817316,8.066238456043003,0.1411278593327582
23.819712,8.03575178928514,0.1409971615334924
23.8221,8.006568375139395,0.140872382571482
23.82448,7.984042889538959,0.1406647046130593
23.82688,7.964590439871578,0.1404095399925735
23.829268,7.943927285390697,0.1401773062889093
23.831648,7.931132764268624,0.1398379721869073
23.834048,7.916847999079333,0.1395349990675588
23.836436,7.900933220195961,0.1392756016343265
23.838816,7.889254960230901,0.1389823874557449
23.841216,7.876226225825482,0.1387192338368146
23.843604,7.863709348099261,0.1384649866529066
23.845984,7.85421828447785,0.1382015074514675
23.848384,7.841886502348863,0.138005943591212
23.850772,7.830578433578271,0.1378293571606977
23.853156,7.8268594589127645,0.1375606787671413
23.855552,7.818949291299322,0.1373911684132365
23.85794,7.807267239618523,0.1373009123924578
23.860324,7.796236814243782,0.1372135275121772
23.86272,7.78450754073474,0.1371601549592706
23.865108,7.777573864651448,0.1370459448133164
23.867492,7.773666002672971,0.1369228412558083
23.869888,7.776416069239801,0.136717724245057
23.872276,7.776744726179633,0.1365616869423803
23.900948,7.768645671253219,0.1365381926315123
23.903332,7.774464982037365,0.1364990918441824
23.905728,7.784800350993544,0.1364140690640706
23.908116,7.799512008494895,0.1362905436245911
23.9105,7.815946227488941,0.1361527060549545
23.912896,7.833032072789044,0.1360202376991533
23.915284,7.852259788462426,0.1358550164017778
23.917668,7.866272597829474,0.135768741061528
23.920064,7.882799364622138,0.1356652846373001
23.922456,7.903190563280774,0.1355147113658427
23.92484,7.927306424178525,0.1353266109665979
23.927244,7.95314484656897,0.1351259113329918
23.929632,7.979774664892335,0.13492160879742
23.932012,8.008127044708395,0.134705480103845
23.934412,8.040483626017291,0.1344358160867718
23.9368,8.074050912139684,0.1341467704342376
23.93918,8.107338659008358,0.1338715757999419
23.94158,8.14756387367606,0.133509480599791
23.943968,8.191513750582875,0.1331139510520672
23.946348,8.236766880101804,0.1327286738274978
23.948748,8.281600700740155,0.1323677657641305
23.951136,8.326294751751647,0.1320164210498696
23.953516,8.372059737949776,0.1316527194448788
23.955916,8.417964493774763,0.1312878018998863
23.958304,8.466662746279088,0.1308991583600313
23.960688,8.513219128410135,0.1305439604304791
23.963083999999995,8.557773409794763,0.1302160158834422
23.965472,8.61033609416506,0.1297974703260805
23.967852,8.66331808741594,0.1293642352424494
23.970251999999995,8.717510785480316,0.1289172340113523
23.97264,8.765976720559165,0.128531630510785
23.97502,8.815513590824649,0.1281355564127738
23.977416,8.869194432209827,0.1276929285967773
23.979804,8.92129248172917,0.1272583860374849
23.982188,8.975392631994929,0.1268074750178501
23.984584,9.026140207073912,0.1264066168256199
23.986976,9.079169422153036,0.1259751574040995
23.98936,9.127542809433264,0.1255887906002636
23.991755999999995,9.17233130410124,0.1252339366931379
23.994144,9.212743510224044,0.1249076230767803
23.996528,9.250781528548094,0.1245898072232737
23.998923999999995,9.287236755006312,0.1242777519078251
24.001316,9.323319894412188,0.1239546928292793
24.003696,9.35768047232537,0.1236442621607517
24.006091999999995,9.389527092812935,0.1233486144963174
24.00848,9.423934892554358,0.123012665583051
24.010864,9.458762001176364,0.1226616690266493
24.013259999999995,9.484929080506642,0.1223922298162474
24.015652,9.510304763904005,0.12212670625177
24.018032,9.530233223569557,0.1219011433502116
24.020432,9.55351425842188,0.1216327223058929
24.02282,9.57162760879612,0.1213922180557654
24.025203999999995,9.58457327469227,0.1211808370948418
24.027604,9.595144752789665,0.1209748486967155
24.029992,9.601479711968748,0.1207895762405176
24.032376,9.609072597789574,0.1205564097597446
24.034772,9.614151526184784,0.1203347862775203
24.03716,9.621651864206992,0.1200787974358119
24.039544,9.628780115176864,0.1198093531417364
24.04194,9.642194207639704,0.1194734757112507
24.044328,9.652023407490294,0.1191585561050724
24.046712,9.66427401696788,0.1188102744233419
24.049108,9.67401066901985,0.1184731552417695
24.051496,9.67937103252665,0.1181586345430177
24.053875999999995,9.683428143421336,0.117837052115944
24.05628,9.684040131330628,0.1175328988576228
24.058668,9.683348866627805,0.1172215101297404
24.061048,9.683496219686138,0.1168778386844618
24.063448,9.6822005505055,0.1165320507506541
24.065832,9.68225535576522,0.1161633425007524
24.068216,9.676723167666273,0.1158336690455894
24.070612,9.673844706619796,0.1154887417979308
24.073,9.672968346319736,0.1151258522209063
24.075384,9.67330269083318,0.1147453395863921
24.07778,9.671634934600204,0.1143820308357678
24.080168,9.669827408740368,0.1140244273141869
24.082548,9.667508026201332,0.113657636689748
24.084944,9.662674686236684,0.1133002305446747
24.087332,9.655699475898755,0.1129654289691922
24.089716,9.638713761828749,0.1127192325361334
24.092112,9.626803184438208,0.1124251131998298
24.0945,9.614240980741611,0.1121272139908535
24.09688,9.602609942604795,0.1118227153517114
24.099276,9.595914271520591,0.111476373211589
24.101668,9.588287434876609,0.1111354147322972
24.104052,9.577727331926427,0.1108166758751715
24.106448,9.567958624909169,0.1104966831990304
24.10884,9.558841544197966,0.1101801899756053
24.11122,9.55172656423318,0.109846538482232
24.11362,9.547544850574592,0.1094904200338165
24.116008,9.545505007289275,0.1091104283511838
24.118392,9.54616611288468,0.1086890781528912
24.120788,9.540820916240833,0.1083170984409659
24.123176,9.538408985903182,0.1079232695181703
24.12556,9.537999156311948,0.1075115725070491
24.127956,9.535447456347436,0.1071213377795488
24.130348,9.529822720449868,0.1067572782184358
24.132728,9.519774474178886,0.1064404438767598
24.135124,9.509865997534764,0.1061173595035953
24.137512,9.505451966450698,0.1057319461104432
24.139896,9.498244438687294,0.1053638446678697
24.142292,9.485682234990698,0.1050497893975963
24.14468,9.468976060174407,0.104773363792581
24.14706,9.447194748678646,0.1045405294399605
24.14946,9.425133897929165,0.1043171040491334
24.151848,9.404516069418657,0.1040969633996726
24.154228,9.379614500161594,0.1039203234146876
24.156628,9.35550432683745,0.1037423740423212
24.159016,9.325108312020332,0.1036246943843334
24.161396,9.290428556456666,0.1035498499655593
24.163792,9.260404628691887,0.1034447309734158
24.166184,9.225957190553697,0.1033865371138305
24.168564,9.194443018721698,0.1033062585661045
24.170964,9.159855810956646,0.1032514168768608
24.173352,9.12834163912465,0.103167574397091
24.175732,9.100831668785489,0.1030501854118301
24.178132,9.08077102292455,0.1028885976452366
24.18052,9.067927384116365,0.1026624973191938
24.182904,9.059879342733929,0.102404447382348
24.1853,9.054485028403969,0.1021360146120816
24.187688,9.051744441126482,0.1018570263682759
24.190068,9.055289695341967,0.1015209167494498
24.192468,9.063770316610066,0.1011479817533933
24.194856,9.076255139370996,0.1007428935788625
24.197236,9.091812998064984,0.1003125769965244
24.199632,9.111934136759244,0.0998320104147855
24.202024,9.135268081013423,0.099318403175565
24.204404,9.16074389564088,0.0987872689598132
24.206804,9.1954388180675,0.0981808538325445
24.209192,9.23199607161368,0.0975638922514921
24.211576,9.26762215960008,0.0969588900491437
24.213972,9.304039643519395,0.0963531561892024
24.21636,9.346603199304823,0.0957022358573604
24.218744,9.386885115090116,0.0950746667942815
24.22114,9.421952124569074,0.094493495451289
24.223528,9.452083766995422,0.0939479760280979
24.225908,9.47648864643624,0.0934389648791357
24.228308,9.499682821063557,0.0929486715914296
24.230696,9.51701046307848,0.0924974878425899
24.23308,9.532615543600713,0.0920530711829133
24.235476,9.545287357816749,0.0916275547126168
24.237864,9.55432705759229,0.0912467211045759
24.240248,9.56429792292761,0.0908636449335815
24.242644,9.580414860129038,0.0904394422601755
24.245032,9.594529696584052,0.0900297771893893
24.247412,9.605431727479148,0.0896489546233255
24.249812,9.622340060613492,0.0892324309536282
24.2522,9.636454897068504,0.0888296689654814
24.25458,9.644283892030549,0.0884762517695333
24.25698,9.652532195873167,0.0881090800059765
24.259367999999995,9.6549139671034,0.0877743454502554
24.261752,9.660788083147263,0.0874053317171394
24.264148,9.66237845844458,0.0870723076269091
24.266535999999995,9.669183740048226,0.0867020645493687
24.26892,9.679853453517843,0.0863121615023431
24.271316,9.694667138107157,0.0858937014984311
24.273708,9.711622693069748,0.085458712904148
24.276092,9.726855686539643,0.0850274018710582
24.278488,9.745161715942588,0.0845757086615094
24.280876,9.76304843646496,0.0841395638445621
24.28326,9.786941459226576,0.0836710085949864
24.28566,9.812324726055415,0.083180802750211
24.288048,9.83426286989886,0.0826966064277827
24.290436,9.84698190594314,0.0822732775995647
24.292836,9.85970094198742,0.0818500253800794
24.295224,9.876284409897668,0.081411289964885
24.297608,9.885790640382035,0.0810157139371599
24.300004,9.892084065306486,0.0806420552637935
24.3024,9.899588195044432,0.0802554090771251
24.304787999999995,9.90536976328968,0.0798705043654362
24.307188,9.9179490297071,0.0794553414901648
24.309576,9.92838642575124,0.0790575791358535
24.311964,9.938172195489324,0.0786540257793669
24.314364,9.945164468548072,0.0782605698488989
24.316748,9.953646985674045,0.0778481765527191
24.319136,9.958776927613236,0.077462653978233
24.321536,9.963767099925567,0.0770823491786165
24.323924,9.96968843779768,0.0766997263179983
24.326312,9.976540941229567,0.0763156207065348
24.328712,9.977806451302786,0.0759457114080262
24.3311,9.96962053615136,0.075606381688863
24.3335,9.956918562827903,0.0752740767766973
24.335908,9.940631696892195,0.074945074551692
24.338296,9.917734124239422,0.0746050424560863
24.340696,9.887015140056084,0.0742659613548648
24.343092,9.83930285837126,0.0739473396516389
24.34548,9.777670315118,0.0736305355129614
