Time,Force,Position
24.53378,5.785183625298211,0.1854059756057667
24.536164000000003,5.877064830310247,0.185136006858292
24.53856,5.969270900546376,0.1849339617766632
24.540948,6.064083476006736,0.184745791446302
24.543332000000003,6.160571391131551,0.1845848871823938
24.545728,6.260037898532934,0.1844518281381268
24.548116,6.377987947503024,0.1839495357446045
24.550496,6.506041048003814,0.1832576941793522
24.552892,6.64182301223655,0.1824274446371188
24.55528,6.781050099454679,0.1815828457133456
24.55766,6.926283488912059,0.1806182059446992
24.56006,7.073938287996436,0.1796086574105607
24.562444000000003,7.226296136707949,0.1784998899459073
24.564828,7.369249782023061,0.177575333101136
24.567224,7.510016230994522,0.1766505646112092
24.569612000000003,7.653298533249469,0.1756032176832652
24.571996,7.793789234682948,0.1745097753535953
24.574392,7.930185082682845,0.1733916465991575
24.576780000000003,8.05834210612947,0.1723212215352808
24.579176,8.178260305022816,0.1712883022825889
24.581572,8.290870844922665,0.1702950883751013
24.583964,8.394823251388658,0.1693684844851635
24.586344,8.49668290516749,0.1683552916035407
24.588744,8.5909553606991,0.1673741689704758
24.591132,8.68099319317027,0.1663576395266796
24.593516,8.76120940922233,0.1653766821280596
24.595912,8.828111664041641,0.1645327374564559
24.6843,8.235683220604896,0.1641073963809684
24.686684,8.218740936647391,0.1640832705050357
24.689088,8.202217961570467,0.1640385387919835
24.691472,8.18662615205332,0.1639818985940319
24.693852,8.170522485856976,0.1639167195753005
24.696248,8.157212316339967,0.1638130388733418
24.698632,8.144181686076678,0.1636952964737646
24.701012,8.13701758842578,0.1634867327224022
24.703428,8.138001663387408,0.1631401836757393
24.705816,8.141919004655232,0.1627458154928157
24.708196,8.14849007297553,0.1623196695650761
24.710592,8.157063242042245,0.1618600701354434
24.712976,8.16084081368321,0.1614711120514272
24.71536,8.163128141256957,0.1611239872210047
24.717764,8.171980849577393,0.1606529753762726
24.720148,8.182556119390524,0.1601640877389605
24.722532,8.194574411442634,0.1596697806168699
24.724928,8.205242229054384,0.1592108580226381
24.727316,8.216049816292994,0.1587479558329834
24.729696,8.22951113058408,0.1582563936932824
24.7321,8.24483477599472,0.1577432503718409
24.734488,8.255595141405086,0.1573209988808944
24.736868,8.267007133121512,0.1569003713630778
24.739272,8.279629829651435,0.1564516190250129
24.74166,8.293043922114276,0.1559993762372106
24.74404,8.308879424204116,0.1555004967863486
24.746436,8.325226782973154,0.1550100242743048
24.748824000000003,8.34278484655569,0.1544963025256603
24.751204,8.354336607898974,0.1540753263298213
24.7536,8.369101174802175,0.1536008866634403
24.755988,8.383074345772458,0.1531335969299515
24.758372,8.397047516742742,0.1526674345465178
24.760768,8.417026989952273,0.1521111577412492
24.763156,8.436354836855749,0.1515533648594815
24.765536,8.445392640773418,0.1511578510897241
24.767932,8.45484975357167,0.1507446580286243
24.77032,8.463655240063863,0.1503297333146971
24.7727,8.473531661742694,0.1498981199392588
24.775096,8.479124342674972,0.1495379901750398
24.77748,8.481132130994999,0.1492172751018946
24.779860000000003,8.478204552262412,0.1489660838281051
24.782276,8.474625347223764,0.1487119297216196
24.78466,8.471325681438838,0.1484447024463665
24.78704,8.471331369012448,0.1481521415133485
24.789444,8.46854355990672,0.1478933084815022
24.791832000000003,8.461472010054438,0.1477057770417004
24.794212,8.452817668336321,0.1475271288655672
24.796608000000003,8.442300995498648,0.1473703192512769
24.798996,8.436719689713586,0.1471449107673005
24.80138,8.429787909488166,0.1469503193777114
24.803776000000003,8.421365885195524,0.146792313307139
24.806164,8.412804091276021,0.1466405804628016
24.808544,8.403171362169882,0.1465058790555055
24.810944000000003,8.39526119455644,0.1463559957592868
24.813332,8.394288494742028,0.1461109936138943
24.815712,8.391825550860393,0.1459028484380795
24.818108,8.391224938098318,0.1456735295536481
24.820496,8.387691059030047,0.1454823858457834
24.82288,8.386019511081331,0.1452692090996772
24.825284,8.38178678387876,0.1451088818922544
24.827672,8.380487322982383,0.1449091491485828
24.830056000000003,8.3821211283922,0.1446698094534766
24.832452,8.386548430481353,0.144399596156335
24.83484,8.390463875891307,0.1441221127121306
24.837224000000003,8.397172817980598,0.1438130043596305
24.83962,8.404021529696749,0.1434971090506595
24.842008,8.413523968465375,0.1431560697734989
24.844392000000003,8.425400595032754,0.1428039679784309
24.846788,8.435135351226856,0.1424874125056931
24.849176,8.445149646674679,0.1421598089294339
24.851556,8.455583251003082,0.1418124952356224
24.853952,8.465225459398567,0.1414692722481173
24.85634,8.47486766779405,0.141127807319421
24.858724,8.482787314696841,0.1408009560982116
24.86112,8.48977579603985,0.1404853101175733
24.863508,8.491177284024191,0.1402284361166873
24.865888,8.489785275329199,0.1400020556183804
24.868288,8.489464201820843,0.1397585578855165
24.870676,8.494218264991957,0.1394466651744532
24.873056,8.506468874469544,0.1390200390059301
24.875452,8.517928088014212,0.1385976295457919
24.877840000000003,8.533531272678575,0.1381206842249304
24.880224,8.543128155103686,0.1377224442082604
24.88262,8.550862706409243,0.1373447855003839
24.885008000000003,8.557805861781878,0.136971891853352
24.887388,8.564749017154513,0.1365986982912743
24.889788,8.572391020661453,0.1361964878532242
24.892176000000003,8.578729771556274,0.1357902699783827
24.894556,8.583066421704677,0.1354084769469805
24.896952,8.583398870360249,0.1350765001179363
24.89934,8.587875290135516,0.1346899541089054
24.901724,8.591141005097281,0.1343240820815739
24.90412,8.589471353006434,0.1340165749973493
24.906508,8.588872636102229,0.1336934895815326
24.908888,8.587342753638243,0.1333796763365878
24.911288000000003,8.595683605279483,0.1329475327918406
24.913676,8.606817953600055,0.1324877082836384
24.916056,8.618883467480408,0.1320189195328839
24.918456000000003,8.62536198800209,0.1316077049877767
24.920844,8.629419098896774,0.1312418184520688
24.923224,8.633056900910878,0.1308937757846773
24.925624000000003,8.63147979661865,0.1306162792196493
24.928012,8.634186433072976,0.1302786750647411
24.930408,8.635402825460083,0.1299733882491008
24.932812,8.633546181914133,0.1297063343068856
24.9352,8.631549768741325,0.1294449829717564
24.93758,8.62485030594138,0.1292615293835409
24.939976,8.613867102394883,0.1291375911372417
24.94236,8.60544507810224,0.1289648153654808
24.94474,8.600235859369517,0.1287464207101018
24.947148,8.586878468024265,0.1286293809875895
24.949536,8.575011320746231,0.1284784496127766
24.951916,8.568359079774531,0.12825789153011
24.954312,8.559564968429555,0.1280670205419677
24.9567,8.551702022644355,0.1278669734722408
24.95908,8.54011441462004,0.1277020613037825
24.961476,8.527735410662812,0.1275393726297086
24.963864,8.514565010772662,0.1273787204551958
24.966244,8.50218600681543,0.1272149586121254
24.968648,8.487293045432587,0.1270643030263298
24.971036,8.470817292183904,0.1269182634847286
24.973416,8.453550143002305,0.1267742742313399
24.975816,8.433209957887648,0.1266674523352808
24.978204,8.414360016840213,0.126527261726325
24.980588,8.396441241352553,0.1263781416646194
24.982984,8.380664336238173,0.1261988617663258
24.985372,8.369031402243486,0.1259662774131343
24.987756,8.362473604928272,0.1256713239515003
24.990152,8.355216959478756,0.125407164125687
24.99254,8.344607738842464,0.125192744207393
24.99492,8.339865050818565,0.1249134345356277
24.99732,8.33563421947386,0.124643912802864
24.999708,8.326188481822825,0.1244415255353928
25.002088,8.320607176037765,0.1241985181986997
25.004484,8.316888201372258,0.1239389851872781
25.006872,8.308466177079618,0.1237559174982587
25.009256,8.297762512786841,0.1236080840237533
25.011652,8.288641640359899,0.1234553447575248
25.01404,8.282174494985433,0.1232834033771622
25.01642,8.279152472596358,0.123090201666211
25.01882,8.282648609125735,0.1228391664307435
25.021208,8.285725436774527,0.1226055495076229
25.023588,8.291455991475795,0.1223531275170607
25.025984,8.300911208416176,0.1220691484153696
25.028372,8.316093188342089,0.1217315334541336
25.030756,8.328062362708085,0.1214369275493066
25.03316,8.340031537074081,0.1211440174063841
25.035548,8.350510467372859,0.1208842909891287
25.037928,8.362060332858272,0.1206113116560086
25.040324,8.37826602614258,0.1202983800881514
25.042716,8.396985676852502,0.1199770444540427
25.045096,8.420500924988177,0.1196146453193676
25.047492,8.455469699094909,0.1191519568346386
25.04988,8.490298703574782,0.1186999524536923
25.052264,8.522846068054521,0.1182830262928943
25.05466,8.562610439587006,0.1177837394331993
25.057048,8.606239242985465,0.1172496150551402
25.059428,8.65280131269012,0.116694096387606
25.061824,8.697501051275218,0.116156825402355
25.064212,8.739267523554123,0.1156493136454639
25.066596,8.777029794340189,0.1151870105606002
25.068992,8.81986720180573,0.1146734852707907
25.07138,8.864566940390828,0.1141507863149149
25.07376,8.90577433416229,0.1136812914600842
25.076156,8.943629152746976,0.1132597737822556
25.078544,8.98772259099639,0.1128035956330801
25.080928,9.03297951223106,0.1123652977305432
25.083328,9.081309469398784,0.1118986735307696
25.085716,9.131222218432349,0.1114338174414876
25.0881,9.181926363398828,0.1109724157497464
25.090492,9.227695141312696,0.1105573583224723
25.09288,9.272113444786202,0.1101726365245565
25.095264,9.307871718967988,0.1098614200146829
25.09766,9.341348353149632,0.1095800870956698
25.100044,9.378829188824112,0.1092658267278205
25.102428,9.415099319685089,0.1089720392769936
25.104824,9.448016875359292,0.1087181262393286
25.107212,9.47371742398075,0.1085336551575325
25.109608,9.498207267788707,0.1083657516823633
25.112004,9.525490608276,0.1081803749993327
25.114392,9.55356534469621,0.1079947507892114
25.116772,9.57563377887717,0.1078613898587111
25.119172,9.59169591081888,0.1077798020218853
25.12156,9.611110617947364,0.107660299404505
25.123944,9.630293007650373,0.1075213295650517
25.126340000000003,9.642585151382594,0.1074094077583183
25.128728,9.6530621858235,0.1072796421605754
25.131108,9.660885493211934,0.1071629651411971
25.133508000000003,9.666474382428474,0.1070436658607533
25.135892,9.666895587166922,0.1069432904966284
25.138272,9.66922634485317,0.1068015083598334
25.140672,9.666668957315052,0.1066684521355157
25.14306,9.664391109030651,0.1065250109035951
25.14544,9.662440021828218,0.1063413175395743
25.147836,9.654250314961056,0.1061865047787943
25.150224,9.64275525473536,0.1060384276264221
25.152608,9.633449286711183,0.1058390293016207
25.155008,9.63084846906056,0.1055663005068186
25.157396,9.632671161783351,0.1052473277169247
25.15978,9.633330371520884,0.1049150145790636
25.162180000000003,9.635899134206216,0.1045438018521384
25.164568,9.64582467357116,0.1041067253761097
25.166952,9.65952209700346,0.1036181058754039
25.169348000000003,9.668843231890587,0.1031472426766586
25.171736,9.673228999725104,0.1027106402985205
25.174116,9.68175873867932,0.1022382066841773
25.176512,9.68921754244689,0.1017764103199152
25.1789,9.696816115841324,0.1013103762171983
25.181284,9.700829796623502,0.1008587700907176
25.18368,9.709639074831433,0.1003769761493958
25.186072,9.714164612292809,0.0999342665810048
25.188452,9.714406409007628,0.0995289694564878
25.190848,9.714927744976167,0.0991133293314312
25.193236,9.714610463183549,0.09872759882271
25.195616,9.71615551251049,0.0983307337175119
25.198012,9.719562892956985,0.0979235784083092
25.2004,9.722411194896036,0.0975372388708944
25.202784,9.72018436015562,0.0971913910250826
