Time,Force,Position
25.07766,1.5744576772214407,0.2211703915203104
25.080044,1.64520919704377,0.2181920044863945
25.08244,1.7183368005227229,0.2147769736089306
25.084828,1.7901158254191862,0.2116514176316069
25.087212,1.862129063598996,0.2081521475937352
25.089608,1.9322346446888747,0.204780615580092
25.091996,1.996940223875187,0.2018184166101156
25.09438,2.0563855707847933,0.1992028548000104
25.096776,2.114155578029946,0.1966915598938931
25.099164,2.170762102289844,0.1943544796919257
25.101548,2.22383095576573,0.1922494173205163
25.103944,2.275084699950304,0.1901386540018898
25.106332,2.3243835652167046,0.1881853284272308
25.108716,2.3765231489906826,0.1859560383902751
25.111116,2.4256369186598485,0.1838486890167406
25.113504,2.4719571916496794,0.1820631737535683
25.115884,2.5176258383334527,0.1803353475958292
25.173224,2.7423896920951845,0.1788718395554894
25.175624000000003,2.7482562247075752,0.1785708000835839
25.178008,2.7567764843724407,0.1781630807985698
25.180392,2.763294643290889,0.177850975104445
25.182788,2.770976285194593,0.1775609123539833
25.185176,2.781591193404492,0.1771190350955169
25.18756,2.7962103031072245,0.1764785862866443
25.189956,2.809990795048796,0.1759712792635726
25.192344,2.826425014042842,0.1753754385561531
25.194728,2.8450936512087823,0.1747516277299359
25.197124,2.8610613394940048,0.1743299886709259
25.199512,2.875399014085148,0.1740592207444046
25.201892,2.8909473934897894,0.1737034718115032
25.204292,2.912362305506821,0.173073594709256
25.20668,2.932706282337215,0.1725064150058878
25.20906,2.9538416551005264,0.1719190849986753
25.211456,2.9746974886101176,0.1713860493580138
25.213844,2.995413552492848,0.1708878891415494
25.216224,3.016921012308498,0.1703790689271489
25.218624,3.0430842999230387,0.1696944522850428
25.221012,3.0719013145900536,0.1689240221039817
25.223408000000003,3.099647394070431,0.168230273590655
25.225804,3.1255311424312517,0.1676144303984645
25.228192,3.1602146897106573,0.1666332763130212
25.230576000000003,3.1923842795644486,0.1657195611195678
25.232972,3.223343164604741,0.1648914945891212
25.23536,3.2497387696447597,0.1643263747048361
25.237744000000003,3.2792074106178326,0.1636405935699141
25.24014,3.3019709012173557,0.1632874566128216
25.242528,3.321009729577763,0.1630692293217021
25.244908,3.344052759431005,0.1626834720586866
25.247304,3.363091587791414,0.1624540546749894
25.249692,3.3835734383907985,0.1622115876498531
25.252076,3.398188756377792,0.1622083910824772
25.254472,3.4165287366039,0.1620780365872871
25.261644,3.461353077952904,0.1619583784386012
25.264032,3.4749446825815027,0.1619274228937721
25.266412,3.488815826463822,0.1618741379194668
25.268812,3.5013837177340257,0.161820107836023
25.2712,3.512368817138393,0.1617946457775774
25.273584000000003,3.527218348408734,0.1616398037979046
25.27598,3.537412051880183,0.1616368570894397
25.278364,3.554403453523801,0.1614149054819194
25.280748,3.5746076607273345,0.1610751897529942
25.283144,3.5972332775578657,0.1606223003761028
25.285532,3.6153428362163647,0.1602943153910529
25.287912,3.642439185248554,0.1595925252534147
25.290308,3.671677404654018,0.1588046817681256
25.2927,3.6973307314472303,0.1581146074455669
25.29508,3.730061295666333,0.1571770582320785
25.297476,3.7624197728330966,0.1562173320382885
25.299864000000003,3.798782451492694,0.1551181769098628
25.302248,3.8326311727266775,0.1540936074244865
25.304644,3.868202455453357,0.1530397827931771
25.307032000000003,3.903494198926316,0.1519984273373562
25.309412,3.942138517586051,0.1508248692756864
25.311812,3.97743026105901,0.1498029530066763
25.314196,4.006855471919579,0.148971523662423
25.31658,4.036280682780148,0.1481505441417154
25.318976000000003,4.066776828827355,0.1472957440505155
25.321364,4.091546211889033,0.1466087417919543
25.32376,4.113242559017654,0.1460184323255129
25.326156,4.128280977600968,0.1456238829629463
25.328544,4.137592633198751,0.1453887576276141
25.330924,4.146252662490475,0.1451535940962939
25.333324,4.155843857341979,0.1448941468567833
25.335712,4.159288980327372,0.1448305152335087
25.352424000000003,4.147372715363227,0.14482849708037
25.35482,4.144161805661181,0.1447350379547146
25.357208,4.142021831145772,0.1446080668581942
25.359592000000003,4.140580704764666,0.1444171966580868
25.361988,4.140490052823918,0.1441658389381861
25.36438,4.1406789401368895,0.1438903676667864
25.366760000000003,4.137934561143668,0.1436888565836311
25.369156,4.138263218083501,0.1433994130758756
25.371544,4.143155155023608,0.1429509009986079
25.373924,4.149397566404075,0.1424429600500601
25.376324,4.1537776466649845,0.1419686053556282
25.378708,4.156155626179477,0.1415502347768673
25.381092,4.1597443105074685,0.1410865594231808
25.383492,4.164543699648958,0.140575338167484
25.38588,4.171484959163726,0.1399979634081787
25.38826,4.175632721999158,0.1394854509405915
25.390656,4.176427909647815,0.1390875189372255
25.393048,4.182158464349083,0.1385589083542387
25.395428,4.190682515729686,0.1379723249889642
25.397824,4.20642357416304,0.1371788419921409
25.400216,4.219882992596255,0.1364723700517566
25.402596,4.233062871775751,0.1358088370700294
25.404996,4.239165513529357,0.1353285058261611
25.407384,4.24591978158902,0.1348567291069427
25.409764,4.253325675954742,0.1343902397801488
25.41216,4.259520865506966,0.1339699826789044
25.414548,4.271722357298439,0.1334053604448138
25.416944,4.282480826850937,0.1328433425414099
25.419344,4.289886721216659,0.1323879126497849
25.421728,4.297524933007859,0.131976767499943
25.424112,4.313031778157864,0.1313869900781584
25.426508,4.32946978886765,0.1307785733163655
25.428896,4.344836864390796,0.1302039836257179
25.431276,4.358993235100444,0.1296707515335777
25.433672,4.372870066556371,0.1291671818845652
25.436064,4.3861878195048565,0.1287085750178022
25.438444,4.400576507639981,0.1282191738227515
25.44084,4.418550088387359,0.1276841942554758
25.443232,4.433590402828541,0.1272158915510065
25.445612,4.443555580590251,0.1268709349042022
25.448008,4.451518657605545,0.1265696209833069
25.450396,4.455337763501145,0.1263725956212929
25.45278,4.464092236449357,0.1260662498376367
25.455176,4.471263917531731,0.1257710775570323
25.457564,4.480577468987384,0.1254218530360605
25.459948,4.488680315629538,0.1251115734111994
25.462348,4.489845694472662,0.124952941562253
25.464736,4.492314325927903,0.1248086572332948
25.467116,4.497855993316199,0.1245933614855482
25.469516,4.503165343279018,0.1243371726043014
25.471904,4.5021888517488655,0.1242354002416482
25.474288,4.504145626524909,0.1240759988507878
25.476684,4.50717333648759,0.1238904970661674
25.479072,4.512063377569828,0.1236740829293486
25.481456,4.513880382719012,0.1235263420037289
25.483852,4.521052063801387,0.1232468783095765
25.486244000000003,4.527292579323984,0.1229824491238495
25.488624,4.52901703667455,0.1227858917133267
25.49102,4.536328487383785,0.1225035515680229
25.493408,4.546945291451554,0.1221953262643744
25.495792,4.559424426638878,0.1218555677344399
25.498188000000003,4.573765892945759,0.1214861730561148
25.500576,4.587967589625781,0.1211306538460277
25.502956,4.604263934850835,0.1207879245509882
25.505356000000003,4.6181388704488935,0.1205202884747078
25.507744,4.633084741233589,0.1202257547285234
25.510124,4.649892943137843,0.1198973501386977
25.51252,4.665490440228597,0.1196060726950289
25.514912,4.676943966199658,0.1194074107576344
25.517292,4.687978183290137,0.1192428428383879
25.519692000000003,4.705158472246727,0.118948391415547
25.522076,4.718194790083624,0.1187471074205894
25.52446,4.729089237547243,0.1185970509336944
25.526860000000003,4.742265325011001,0.1183899430496133
25.529244,4.759585383594452,0.1180947071824004
25.531628,4.774763571804626,0.1178562804639546
25.534024,4.791804091134356,0.1175915432728249
25.536412,4.8084253015835055,0.117359041193114
25.538792,4.816386482740929,0.1172697417816995
25.541192,4.825977677592432,0.1171172845654756
25.54358,4.835848411697656,0.1169444927434689
25.545964,4.845067519496822,0.1167650849381062
25.54836,4.854705936176569,0.1165566416580471
25.550748,4.8630411002442,0.1163339385914287
25.553132,4.872075112446132,0.1160601513247492
25.555528,4.882319829461562,0.1157545363534292
25.557916,4.894426877596549,0.1154236027963633
25.560296,4.906022069052341,0.1150733224677468
25.562696,4.922692397187602,0.1146302342648342
25.565084,4.939362725322865,0.1141871460619216
25.567464,4.953239556778792,0.1137892677914137
25.56986,4.966464761928661,0.113380239639602
25.572248,4.9815522981980855,0.112946221583785
25.574632,4.991564697788039,0.112606928016919
25.577028,5.000506162191354,0.1122933577174265
25.57942,5.00358109398228,0.1120716814308628
25.5818,5.008518356892761,0.1118282151166925
25.584196,5.011872827937406,0.1115877236880994
25.586588000000003,5.018160565288246,0.1112972558563425
25.588968,5.022585971519529,0.1110348747774495
25.591368,5.0287339392435095,0.1107603895679335
25.593756000000003,5.032600266967353,0.1105386317215293
25.596136,5.034045185064197,0.1103808419434536
25.598532,5.030414966481571,0.1103121201032025
25.60092,5.02850730939164,0.1102294678942883
25.603304,5.025388947488209,0.1101786433900148
25.6057,5.0256231607715565,0.1100538842222942
25.608088,5.029070179614819,0.1098661312365024
25.610468,5.028792536218968,0.1097243865042641
25.612868,5.029865367263475,0.1095428287654789
25.615256,5.029075867188426,0.1093835219327943
25.61764,5.034013130098907,0.1091501453964544
25.620036,5.03815899707647,0.1089186477614077
25.622424,5.043515568867532,0.1086557336797727
25.624804,5.04514747841948,0.1084355983929657
25.627204000000003,5.054275934277899,0.1080718210979805
25.629592,5.058748562337426,0.107763314033769
25.631976,5.065223291143369,0.1074227560463907
25.634372000000003,5.075050595136089,0.1070132796328643
25.63676,5.076589956889421,0.1067437420083301
25.694116,4.704548904050768,0.1065560040559603
25.696496,4.68769727203401,0.1065300524356096
25.698896,4.67284774076367,0.106471188927843
25.70128,4.66400451173258,0.1063182445180647
25.703664,4.659305253821184,0.1060914279007963
25.706064,4.659029506283202,0.1057710509836959
25.708452,4.661547255424555,0.1054180851139024
25.710836,4.664344543819628,0.1050416717076598
25.713232,4.671006264080677,0.1046082421058869
25.715624,4.677807753968583,0.1041611870914988
25.718004,4.6855404094162685,0.1037025375069896
25.720404,4.692621438557896,0.103235896332615
25.722792,4.7030550428863,0.1026941723346064
25.725176,4.711486546468287,0.1021834825024913
25.727576000000003,4.7228513163564685,0.1016291134662697
25.729964,4.73407631661779,0.1010809665798904
25.732352,4.738875705759279,0.1006675960106777
25.734748,4.741393454900631,0.1003060721246529
25.737132,4.742980038482207,0.0999568500109722
25.739516,4.745637557250419,0.0995864906877284
25.741912000000003,4.748015536764911,0.0992358709184043
25.744304000000003,4.748391415532988,0.0989171077480949
25.746684,4.747556589487566,0.0986301420626941
25.749084,4.7457905978823645,0.0983541054024301
25.751472,4.743372979971105,0.0980684862601437
25.753856000000003,4.735740455753515,0.0978724224677066
25.756252,4.7274563052298655,0.0976657189987438
25.758644,4.723176356199049,0.097399803713912
25.761024000000003,4.718756637541373,0.0971439029612884
25.763424,4.718201350749672,0.0968399791233956
25.765812,4.716714898398189,0.0965450984099419
25.768196,4.713505884554013,0.096258209639316
25.770592,4.705081964403503,0.0960577328617605
25.772984,4.695587109066355,0.0958758719784577
25.775364,4.686232023356068,0.0956834475195605
25.777764,4.679810203951975,0.0954519416327949
25.780152,4.673807693428462,0.0951890513475316
25.782536,4.668736348464729,0.0949153324497921
