Time,Force,Position
28.255068,3.223322998152793,0.1939555121661485
28.257456,3.440873636577514,0.1916431610905103
28.259836,3.652467090449098,0.1894754213464337
28.26224,3.852795905662594,0.1877569795089797
28.264624,4.037483793672831,0.1869128532271933
28.267004,4.209464020786005,0.186428018745349
28.269408,4.369108674054453,0.1862670101244963
28.271796,4.520841263851589,0.1861613699326449
28.274176,4.671739027603303,0.1857367434203232
28.276572,4.814864497510567,0.1852851431944535
28.27896,4.948727429506159,0.1849074672200905
28.28134,5.078355738441307,0.1844803920308912
28.283736,5.198674287636544,0.1842292821700365
28.286124,5.316992631943232,0.1839180071040126
28.288504,5.437035433600487,0.1834332810737367
28.2909,5.558103844474005,0.1828281168403958
28.293288,5.680197864563787,0.1821199988042013
28.295668,5.801035853869699,0.1813919507970878
28.298064,5.91740500683182,0.1807371331724286
28.300448,6.033541842368465,0.1800911784701674
28.302831999999995,6.149166821225912,0.179470449307044
28.305232,6.26451226082964,0.1789054582527064
28.30762,6.386375859351815,0.1782364180531311
28.309999999999995,6.516759717538855,0.17740407362083
28.312396,6.653661734644344,0.1764687467572142
28.314784,6.793916326936609,0.1754608562236185
28.317164,6.941155608856143,0.1743048620704743
28.319564,7.087510947044143,0.1731697954931871
28.321948,7.229117909634634,0.1721322492686206
28.324344,7.371051633307088,0.1710629226792044
28.32674,7.512940031009169,0.1699411515001374
28.329128,7.652548684568981,0.1688007475213056
28.331508,7.784942226933915,0.1677110522861391
28.333912,7.907886239932074,0.1666993576406674
28.3363,8.020077470951342,0.1657622209452183
28.33868,8.125799660738277,0.1648095080961704
28.341076,8.2211883774269,0.1638953337309115
28.343464,8.311411305495303,0.1629592254722173
28.345844,8.397679149756986,0.1619644598644973
28.34824,8.477338183159471,0.1609551172079864
28.350628,8.548898161635542,0.1599621958870581
28.353008,8.614500955558475,0.1589500784266709
28.355404,8.670933759368355,0.1579799657692796
28.357792,8.718196573065178,0.1570453953554123
28.360172,8.757592649261063,0.156145447461218
28.362576,8.792706880568266,0.1552350082747514
28.364964,8.813249224000979,0.1544724319230079
28.367344,8.827739939224069,0.1537426520688048
28.369744,8.836318795864392,0.1530345648915941
28.372128,8.836192297242615,0.1523811589558971
28.374508,8.828803465597717,0.1517782932742305
28.376904,8.81573509279553,0.1512163711281677
28.379292,8.79992044514225,0.1506518314236357
28.381684,8.78187137931708,0.1500929697264952
28.38408,8.762099751999209,0.1495472789591122
28.386468,8.737020670576392,0.1490534111910693
28.388848,8.709799718780298,0.1485915702150598
28.39124,8.676340147319475,0.1481924588156568
28.393628,8.63915591361954,0.1478350445957255
28.396024,8.596896543240131,0.1475495940619217
28.398416,8.554125316181526,0.1472521817510604
28.400804,8.50562732613739,0.1470247193354154
28.403184,8.45326490422728,0.1468449179402918
28.510708,7.144951973057987,0.1468444998163148
28.513104,7.161384296194162,0.1467870484816293
28.515492,7.17632637526312,0.1467715710917244
28.517876,7.195132886198051,0.1466963634108261
28.52504,7.241262376017039,0.1466466293303588
28.527436,7.259277491019052,0.1465759563713001
28.529824,7.27449910934173,0.1465449467384305
28.532208,7.293585159530382,0.1464586436320422
28.534604,7.31630332415953,0.1462906649497459
28.536992,7.336227992109343,0.1461588553527061
28.539372,7.358294530432434,0.1459908026481353
28.541776,7.385855514315575,0.1457173507823887
28.544163999999995,7.415558368571997,0.145404622004937
28.546544,7.442607495775942,0.1451211355267669
28.548948,7.467422204807995,0.1448456953413267
28.551331999999995,7.488791790854652,0.144607022272061
28.553712,7.505645318729278,0.1444227890368123
28.556108,7.520124658805151,0.1442542350425539
28.558492,7.536094242948243,0.1440473717013356
28.560888,7.551412200785277,0.1438393826947878
28.563284,7.571945064928643,0.1435459449542527
28.565672,7.593037007579451,0.1432254323789837
28.568048,7.615619194297476,0.1428641468573618
28.570452,7.642904430642638,0.1424069356238171
28.57284,7.669677810308601,0.1419393294982202
28.57522,7.689793261429255,0.1415616731433886
28.577624,7.709257086243852,0.1411826121085929
28.580008,7.720619960274164,0.1408935458645879
28.582388,7.73012050318492,0.1406287931352146
28.584788,7.741762916468953,0.1403262485871798
28.587171999999995,7.7471667100882575,0.1400899654406129
28.589556,7.748985611095311,0.1398926446934654
28.591947999999995,7.752294756169581,0.1396575794117554
28.594336,7.757233914937931,0.139376587187387
28.596716,7.765246109639337,0.139049836819726
28.599115999999995,7.772606678034686,0.1387201904134323
28.6015,7.782528425683892,0.1383347880548535
28.603884,7.792450173333098,0.137950018087579
28.606288,7.79878702837005,0.1376033685567833
28.608676,7.804751796354665,0.1372411960898339
28.611056,7.804617714301414,0.1369337298801738
28.61346,7.802900840382326,0.1366340044050667
28.615848,7.80532793758293,0.1362742070994219
28.618228,7.806823869223756,0.1359266541387998
28.620632,7.812324002357418,0.1355266582068386
28.62302,7.819966005864354,0.1350912358754095
28.6254,7.827608009371293,0.1346563808234133
28.627796,7.840045610303981,0.1341629295698996
28.630184,7.851831584930612,0.1336666003442975
28.632563999999995,7.864176638064684,0.1331446216099875
28.63496,7.877313087131676,0.1326163393942909
28.637348,7.891380701758444,0.1320783972185971
28.639731999999995,7.904097841944854,0.1315744116933457
28.642128,7.918677313250821,0.1310538176918229
28.644512,7.927250482317537,0.1306116619247713
28.646892,7.93782575213067,0.1301443984480427
28.649288,7.944117281197248,0.1297423459008349
28.651676,7.950548579890686,0.1293342879996474
28.654072,7.956188482651207,0.1289284955396217
28.656468,7.959406975784731,0.1285682561883294
28.658856,7.961274994477896,0.1282350776496854
28.66124,7.961932308357562,0.1279243175336112
28.663636,7.95351028406492,0.1277350183591454
28.66602,7.941875454212365,0.1275947763119004
28.6684,7.924234322120558,0.1275324729461538
28.6708,7.90738458596167,0.1274666264976705
28.673184,7.888952057936945,0.1274061824752078
28.675568,7.87051952991222,0.1273445486878292
28.677964,7.853669793753331,0.1272763286651088
28.680352,7.83947378464692,0.1271851193992372
28.682732,7.8300733729662575,0.1270403508677289
28.685128,7.821464357218513,0.1268927249758913
28.687515999999995,7.81299511109763,0.1267384951028403
28.6899,7.80252376423033,0.1266086608115841
28.692296,7.79698778441564,0.1264202441436438
28.694683999999995,7.790380869414312,0.1262473422286573
28.69708,7.78670722071918,0.1260405018542371
28.699476,7.782102406464268,0.1258424564068678
28.701864,7.781873880754528,0.1256131158884103
28.704244,7.7817851246716465,0.1253763135691407
28.706644,7.785700570081601,0.1250895291217887
28.709028,7.793620216984389,0.1247544433122486
28.711408,7.806475230939789,0.1243588669120811
28.713804,7.82440538157466,0.1239002722130799
28.716192,7.846479503329225,0.1233857278258436
28.718572,7.866831063591093,0.1228822351641546
28.720976,7.8886256460919375,0.1223801495200729
28.723364,7.906555796726809,0.1219201892594877
28.725748,7.922483846615264,0.1214853651850319
28.728144,7.935338860570664,0.1210933652805282
28.730532,7.944329442660091,0.1207448026208059
28.732912,7.950666297697041,0.1204159623930407
28.735308,7.950996850494742,0.1201575638174915
28.737696,7.949045763292305,0.1199357677353343
28.740076,7.94616351053009,0.119723016555944
28.742467999999995,7.940068452207961,0.1195553228599959
28.744852,7.934113163512691,0.1193810070813779
28.747248,7.928018105190562,0.1192128402015456
28.749652,7.919269319815958,0.1190640939364238
28.75204,7.915455901493965,0.1188599217275973
28.75442,7.913504814291529,0.1186394426757639
28.756824,7.908061382275458,0.1184763095119986
28.759212,7.903688885446025,0.1182985837982932
28.761592,7.891168216004066,0.1182187000372846
28.763988,7.878368007308386,0.1181509750751119
28.766372,7.871015022344514,0.1180404727898165
28.768756,7.863010411074586,0.1179251460609261
28.771152,7.856728361297353,0.1177995933477185
28.773536,7.850586081146981,0.1176674037868782
28.775915999999995,7.842441700250189,0.1175576467742127
28.778316,7.8321554489801235,0.1174768909855438
28.7807,7.822520824016116,0.1174005521220475
28.783083999999995,7.818752731664498,0.1172614161841414
28.78548,7.819268380059433,0.1170633562415631
28.787864,7.819504489200649,0.1168783739651375
28.79026,7.824675965394477,0.1166391938950489
28.792663999999995,7.830359298267503,0.1164117765156631
28.795052,7.836834027073446,0.1161825716666543
28.797432,7.844100151812308,0.1159525003906832
28.799828,7.846151370244837,0.1157890725372056
28.802216,7.848062819050506,0.1156330900579182
28.804596,7.851604281550254,0.1154372810746229
28.806992,7.8531436433035875,0.1152638926445782
28.80938,7.862831177669446,0.1149952532907316
28.81176,7.8734498775950845,0.1147205472946577
28.81416,7.877410648975413,0.1145072631996483
28.816544,7.881091881102022,0.1143063255230004
28.818928,7.886635444348187,0.114090047486434
28.821324,7.896974605020103,0.1138306126514215
28.823712,7.909036327184717,0.113561454340231
28.826092,7.929246221961859,0.1132016977450948
28.828496,7.954391483791612,0.1127945371471666
28.830884,7.981538846367782,0.1123704772687816
28.833264,8.006684108197536,0.1119706878882331
28.835664,8.033831470773706,0.1115523666011948
28.838052,8.061118602976736,0.1111321999344614
28.840432,8.088964813687207,0.1106902574701233
28.842836,8.119092664397815,0.1102189840430086
28.845224,8.147218414362007,0.1097686847338593
28.847604,8.178277430632393,0.1092908083482334
28.850004,8.21040738208942,0.1088055768542211
28.852392,8.243328729479362,0.1083225141146485
28.854772,8.2791833431755,0.1078155388670791
28.857168,8.311964920938584,0.1073451303052016
28.859556,8.339950901275913,0.1069141667524622
28.86194,8.371661543852358,0.1064555845351835
28.864336,8.409518258294913,0.1059387078298858
28.866724,8.451798483110881,0.1053743791925058
28.869104,8.486349844194905,0.1048747508892668
28.871508,8.523462384532786,0.1043365794352101
28.873896,8.555639557818054,0.1038481315636095
28.876276,8.583160903304432,0.1033944298570626
28.878672,8.608819917671251,0.1029570811761737
28.88106,8.632197292037935,0.102548260587511
28.88344,8.652781169725282,0.1021588839183577
28.885836,8.669500615546657,0.1017999308070659
28.888224,8.688361931741307,0.1014217933258472
28.890604,8.704150212002903,0.1010737681756003
28.893,8.721149197077995,0.1007089641995359
28.895388,8.738707260660533,0.1003239037273262
28.897784,8.751609496444178,0.0999685521414671
28.90018,8.76558266741446,0.0996044985956123
28.902564,8.776622572078546,0.0992636363270479
28.904948,8.784729210436439,0.0989438791204751
28.907344,8.798050755100663,0.0985749068612481
28.909732,8.81086044308569,0.0981960739141022
28.912112,8.814730562525273,0.0978888925536358
28.914508,8.811523444538963,0.0976421044410703
28.916892,8.814322628791906,0.0973469444881924
28.919276,8.813117611552016,0.0970840515988382
28.921672,8.810050263192569,0.0968312268693229
28.92406,8.80805385001976,0.0965677039123998
28.926456,8.802332774607837,0.0963244181936717
28.928852,8.800104044009549,0.0960383913999231
28.931239999999995,8.797223687105205,0.0957459221723747
28.933624,8.7954142653875,0.0954421406879373
28.93602,8.786248066990185,0.0952065810549665
28.938407999999995,8.778152803779507,0.0949602147076724
28.940788,8.768055439822414,0.0947289189997994
28.943183999999995,8.755816205492044,0.0945182898270129
28.945572,8.744508136721453,0.094301946232823
28.947952,8.730127032017803,0.0941112404318038
28.95036,8.717096401754516,0.093898823681834
28.952744,8.712213944103754,0.0936206688239802
28.955124,8.705189616079718,0.093363446504167
28.957519999999995,8.700027619175236,0.0930972793923248
28.959908,8.699940758950227,0.0927908466649561
28.962292,8.700924833911854,0.0924736166485625
28.964687999999995,8.698975642567289,0.0921763986912016
28.967072,8.697817847155642,0.0918791608295645
28.969456,8.700384713983105,0.0915637542556681
28.971852,8.700530171183576,0.0912785248512337
28.97424,8.705471225809795,0.0909651541983252
28.97662,8.707990870809018,0.0906826688743861
28.97902,8.711301911741158,0.0904005039590115
28.981408,8.715544118233074,0.0901139332876573
28.983788,8.724861461404464,0.0897880637199718
28.986184,8.735249739762494,0.089453571367534
28.988572,8.747919658120662,0.0890942235457527
28.990967999999995,8.762451907598384,0.0887269209493833
28.993364,8.777915322635886,0.0883556839469496
28.995756,8.793518507300249,0.0879789381568072
28.998135999999995,8.806560512710751,0.0876373442174307
29.00054,8.81052317994895,0.0873620884668592
29.002928,8.815277243120068,0.0870885628597797
29.005308,8.81709803998499,0.0868336399978387
29.007704,8.820641398342607,0.0865772534333857
29.010092,8.824044987073364,0.0863258503650269
29.012471999999995,8.830381842110317,0.0860578420347572
29.014872,8.838860567520546,0.0857718884534813
29.017256,8.842543695505025,0.0855111247757882
29.019639999999995,8.84892777237022,0.0852109324119394
29.022036,8.850096942929087,0.084951265326231
29.024424,8.854618688674723,0.0846596941471576
29.026804,8.86593813259253,0.0843334060805889
29.029208,8.878188742070117,0.0840044475548677
29.031592,8.889508185987927,0.0836803295080146
29.033976,8.898825529159316,0.0833694851260519
29.03638,8.909585894569684,0.0830681346960567
29.038764,8.91927532479341,0.0827763410342249
29.041144,8.931898021323333,0.0824706549147964
29.043548,8.945172344159316,0.0821716859113786
29.045936,8.965803443674908,0.0818201705140931
29.048316,8.994163406922445,0.0814317745653329
29.050712,9.019590103863786,0.0810588454303702
29.0531,9.045808196738047,0.0806880500926502
29.05548,9.064157656253505,0.0803591971909241
29.057876,9.084369446888513,0.0800242090670288
29.060264,9.101368431963609,0.0797155007743743
29.062644,9.116225546665424,0.0794242414615362
29.06504,9.135738489166132,0.0791167117029404
29.067428,9.1552042098386,0.0788420049613387
29.069808,9.1810955416309,0.0785189843568074
29.072204,9.20484500304992,0.0782145753222366
29.074588,9.219515126296631,0.0779648848970725
29.076972,9.233254083983567,0.0777192664484347
29.079367999999995,9.24405977536431,0.0774874179884793
29.081756,9.253934301185271,0.0772583582761567
29.084152,9.258501372901284,0.077037557810072
29.086548,9.257109364206288,0.076816823768785
29.088936,9.245614303980592,0.0766231781116047
29.091316,9.22937086815739,0.076416231905705
29.09372,9.197949244124011,0.0762651536323814
29.096108,9.15325898482826,0.0761309443162996
29.098488,9.100235457322748,0.0759887035929236
29.100884,9.036876560861057,0.0758488024877063
29.103272,8.972121863988631,0.0756628135894857
29.105652,8.897451107040608,0.0754606299171325
29.108056,8.81179335483035,0.0752510820307538
