Time,Force,Position
23.337784,1.789059166021894,0.1970556926079331
23.340184,1.865305131404276,0.1937066339504615
23.342572,1.9380606478308915,0.1908156062188366
23.34496,2.0085364201152385,0.1881221789797152
23.347356,2.0719368508315656,0.1860047267772959
23.349744,2.135339177405762,0.1836064802715913
23.352132,2.1912468535313585,0.1816960903134452
23.354528,2.244455476634106,0.1798911899713899
23.356916,2.2923113196615303,0.1782947543459642
23.359304,2.338678814479604,0.1765903299437165
23.361704000000003,2.3767130410879163,0.1752870907350694
23.364092,2.412140762471997,0.1740637377281972
23.366488000000004,2.451108050497957,0.172444897873608
23.368896,2.4919848914717173,0.1706437468805743
23.371288,2.528625213527166,0.1690202944146868
23.373684,2.5630311174107208,0.1674317356471157
23.37608,2.593712359055162,0.1660620815712921
23.378468,2.623462435139825,0.1647887083887991
23.380868,2.656285547157544,0.1633681146093641
23.383268,2.690179594361901,0.1619099791858289
23.38566,2.7260757423126742,0.1603618424714887
23.388056,2.759830019890171,0.1589841598297428
23.39046,2.792141275228692,0.1576652045471055
23.392848,2.8188655372085427,0.1565994076574376
23.395248,2.843587698441977,0.1556297158011306
23.397640000000003,2.8620240181824395,0.1550031647065839
23.400028,2.880180798669182,0.1544144504167775
23.402432,2.892750585797254,0.1540593603518192
23.404824,2.9051806032984677,0.1537366232170239
23.407224,2.9133268800531256,0.1536413230750789
23.409620000000004,2.9228236312481437,0.1534467938017205
23.412012,2.9305978209504646,0.1533098202636406
23.414408,2.936509679533229,0.1532471387497808
23.416808000000003,2.9432129340489115,0.1531759658816694
23.419196,2.954851555617206,0.1529068877462248
23.421592,2.971285774611252,0.1524642205926381
23.443092,3.0454843132768423,0.1521185861941339
23.445488,3.058099426375289,0.1519973093025664
23.447876,3.073647805779931,0.1517667943434837
23.450256000000003,3.0935724737297443,0.1514157452176458
23.452656,3.1101445664927816,0.1512284922718948
23.455044,3.128578990375375,0.1509737452315835
23.457424000000003,3.149667141310444,0.1506498245416673
23.45982,3.169404817805154,0.1504095993306222
23.462208,3.1937983220987545,0.1500374168492267
23.464604,3.216329495272799,0.1497403743336756
23.467,3.236718798073566,0.1495473208148383
23.471772,3.268557835129656,0.1494952751020927
23.474168,3.2881557419975054,0.1493315437176187
23.476552,3.3138997207314653,0.1489429543491802
23.478936,3.348583268010872,0.1482473405972675
23.481332,3.386339851223333,0.1474488882291077
23.48372,3.4238168951820738,0.1466884356231376
23.486104,3.462504643954313,0.1458804524275947
23.4885,3.499609600860717,0.1450995269216994
23.490888,3.5368543273939808,0.1443202397911608
23.493268,3.5711657876210485,0.1436325788158316
23.495672,3.603754686355421,0.142995057032481
23.49806,3.6336898580373176,0.1424236805387249
23.562568,3.662363311361735,0.1421223808420048
23.564952,3.6532405430769246,0.1420391586593992
23.567348000000003,3.6474703499788896,0.1418274799545581
23.569736,3.642259235388296,0.1415564598577252
23.57212,3.633602997812309,0.1413486315250313
23.57452,3.6239230468779264,0.1410985990682782
23.576908000000003,3.61200867777165,0.1408597267843428
23.579288,3.5973008119860386,0.1406931094289449
23.581688,3.5851541254542854,0.1404005482352213
23.584076000000003,3.572495582243334,0.1400837907216874
23.586456,3.561327283099602,0.1396803382079615
23.588856,3.5472257176496744,0.1393615659753292
23.591244000000003,3.531913447386249,0.1390942302638489
23.593624,3.519813982682738,0.1387073991079069
23.596028,3.504921021299893,0.138389544898229
23.598416,3.487653872118293,0.1380975386030902
23.600796000000003,3.4682448525634166,0.1378835777763922
23.6032,3.451908868941595,0.1375626769732408
23.605588,3.436923359760132,0.1371669375760326
23.607968,3.4244990298325275,0.1366422839490686
23.610364,3.409420972852448,0.1361704445825599
23.612752,3.3919215062453705,0.1358044712193266
23.615136,3.369905981466262,0.1355382407258598
23.617532,3.3461678951944576,0.1353012250450425
23.61992,3.328156571908184,0.1348999374908277
23.622300000000003,3.3145215371670798,0.1344078664701594
23.624696,3.301817667985754,0.1338863604831032
23.627084000000004,3.292047065110624,0.1332732156596956
23.629468000000003,3.2781324911158003,0.1328004682766504
23.631864,3.259794406747562,0.1325039945435968
23.634252000000004,3.2402456175658245,0.1322619116232243
23.636632,3.2225591595036445,0.1319667580076868
23.639032,3.2010082695754907,0.1317906407394665
23.641420000000004,3.178386444460698,0.1316501707434047
23.6438,3.155764619345906,0.1315084126207092
23.646196000000003,3.1379383916568653,0.131218963369263
23.648584,3.1233249695277405,0.1307996903272941
23.650968,3.1075008425851167,0.1304353994038153
23.653364000000003,3.0904660108289943,0.130123993127753
23.655752,3.072080704632513,0.1298822744482369
23.658132,3.056069586234786,0.1296156377548733
23.660528,3.0411294030236973,0.1293045201887544
23.662916000000003,3.03056550835778,0.1289023497203827
23.665296,3.0222360318637564,0.1284922228671345
23.667696,3.0076207138767623,0.1283138588278115
23.670084000000003,2.989700042531235,0.128176026297805
23.672464,2.974013789357602,0.1280313596069228
23.67486,2.955394269877775,0.1279751173272082
23.677248,2.94063918226392,0.1278048825109886
23.679644000000003,2.9317506272624563,0.1274505612710323
23.68204,2.9256555689403267,0.1270203849936985
23.684428,2.9194207409913377,0.1266068280023247
23.686808,2.9189126760278783,0.1260232456736595
23.689208,2.918264841437559,0.1254549434400814
23.691596,2.9184084027801576,0.1248753773493603
23.693976,2.916130554495759,0.1244171046792086
23.696372000000004,2.911571066211222,0.1240607050013742
23.69876,2.9067320386729665,0.1237380415292492
23.701144,2.9031962637468256,0.1234372349963895
23.703540000000004,2.898449784007186,0.1231946857773833
23.705928,2.8935635346406863,0.1229698165263157
23.708308,2.8891891419533846,0.1227736514440866
23.710708000000004,2.882533109265945,0.1226788324934558
23.713096,2.876016846205366,0.1225659458910349
23.71548,2.874435950197399,0.1222949092743825
23.71788,2.8748099331076062,0.122057315326163
23.720268,2.8733215848982563,0.1218686519897185
23.722648,2.877280460420716,0.1215522375163416
23.725048,2.8840328326225118,0.1211706952115138
23.727436,2.8857100681448338,0.1209590987780956
23.729816,2.886316368480517,0.1207896945469638
23.732216,2.886643129562481,0.1206554872980779
23.734604,2.888692452137141,0.1204957866695845
23.736988000000004,2.8941868976971943,0.120283964993921
23.739384,2.900984595869363,0.1200962704615862
23.741776,2.911506956280645,0.1198238177503508
23.744156000000004,2.921610007811346,0.1195985438813903
23.746556,2.933715160088465,0.1193128518047368
23.74894,2.9459600819924425,0.1190129503814209
23.751324000000004,2.9600673350159767,0.1186650930059668
23.75372,2.976316458412789,0.1182459626095003
23.756108,2.989632315503406,0.1179061479117869
23.758488,3.004950273340439,0.1175043434124778
23.760888,3.024924058976365,0.1170096761653277
23.763272,3.047691341291625,0.1164699195838018
23.765656,3.0705983932337464,0.1159186614475436
23.768052,3.094436610735646,0.1153435816539562
23.77044,3.116132957864268,0.1148540752890989
23.772820000000003,3.129681132380361,0.1146008058724744
23.775216,3.1480249043222077,0.1142267216298346
23.777608,3.1671600721969715,0.1138520214384341
23.779988000000003,3.1890887367510703,0.1134244317930173
23.782384,3.2058024949988373,0.1131606267191096
23.784772000000004,3.2186518213806306,0.1129939944080918
23.787152,3.2308495214563653,0.1128151105571198
23.789552,3.241324660039404,0.1126644891018185
23.791940000000004,3.256083539368997,0.1123783003090981
23.79432,3.269631713885091,0.1121435578419673
23.796716000000004,3.2813175572816284,0.1119463883448158
23.799104,3.296076436611221,0.1116684704033105
23.801488,3.307482740754038,0.1115078993511723
23.803884000000004,3.3216825415761906,0.1112896397281042
23.815824,3.350592104041824,0.1111423177886135
23.818224,3.3561318755722507,0.1111257403614419
23.820612,3.3696800500883453,0.1109114776994146
23.822992,3.382436828671521,0.1107040715297614
23.825392,3.3933312761351404,0.1105305121558489
23.82778,3.400640830986507,0.1104117569525149
23.83016,3.4103717954648705,0.1101988824451244
23.83256,3.420382299196955,0.1099545933645804
23.834948,3.428390702182622,0.1097568955616722
23.837328,3.4343970044218723,0.109608982324395
23.839728,3.436259335541429,0.1095748762173504
23.842116,3.4384012059147064,0.1095115607987934
23.846896,3.4418935507283424,0.1093876853323119
23.84928,3.4425923988626432,0.1093148455744806
23.851664,3.4446417214373035,0.1091829153786101
23.85406,3.44268684251913,0.1091460649717771
23.856444000000003,3.4508822369599006,0.1088609359720451
23.858844,3.463221602520365,0.1084650680976041
23.86124,3.47011374434902,0.1081538154136128
23.863628,3.472489828005643,0.1079108815402933
23.866008,3.4723519542366525,0.107688692723222
23.868404,3.470491518974965,0.107486149475833
23.870792,3.468631083713278,0.1072845278982459
23.873172000000004,3.469703914757786,0.1070240275350524
23.875572,3.469705810615655,0.106790789672397
23.87796,3.468636771286885,0.1065864223932453
23.880340000000004,3.469290293450812,0.1063653658933697
23.882736,3.475158721921072,0.1060134126063317
23.885124,3.4831690207646084,0.1056040798358521
23.887508,3.492529794048504,0.1051367383415451
23.889904,3.5026819632653177,0.1046703931944743
23.892292,3.512694362855272,0.1042228845955865
23.894672,3.523917467258724,0.1037276555873703
23.897072,3.5348610324084557,0.1032614906079864
23.89946,3.5416606264384938,0.102897191028005
23.901844,3.548599990095392,0.1025168471900721
23.90424,3.552186778565514,0.1022443384563054
23.906632,3.554423092595277,0.1020276970732521
23.909012,3.5613152344239323,0.1017400010622103
23.91142,3.5719320384917,0.1013966690787238
23.913808000000003,3.582129533678888,0.1010921209765565
23.916192,3.591256093679437,0.100817850684066
23.918588,3.6005224233068467,0.100533614116413
23.920976000000003,3.6108596881208954,0.1002295765392175
23.92336,3.623990449614277,0.0998842923878542
23.925756,3.641265182227354,0.0994514460698712
23.928144000000003,3.660821554840568,0.0989630811299355
23.930524,3.678236057080505,0.0985360873904974
23.932920000000003,3.69658172488022,0.0981048454693388
23.935312000000003,3.7146478534262144,0.0977004307352808
23.937692,3.732853751599069,0.0972873198542416
23.940092,3.7490575490255074,0.0969111185062904
23.942480000000003,3.764981807198225,0.0965572734393132
23.94486,3.781045834997803,0.0961914875576139
23.94726,3.802464538730574,0.0957076242607228
23.949648000000003,3.827607904702458,0.0951827039403105
23.952032000000003,3.8500975436218665,0.0946830007891853
23.954428,3.872866721794997,0.094158418072068
23.956812,3.89377356884857,0.0936622460981183
23.959196,3.912026688849668,0.093191598581468
23.961592000000003,3.933632384037542,0.0926420509097248
23.96398,3.953235978478999,0.092124044731069
23.966364,3.971628868106957,0.0916449061925005
23.968760000000003,3.983875685868805,0.0912802664532503
23.971148,3.997333208444152,0.0908854045395705
23.973532,4.007717695086442,0.0905517567811089
23.975928000000003,4.011956109862623,0.0903285341391565
23.978316,4.013121488705748,0.0901595826312743
23.980696,4.0081407956827615,0.090100379019954
23.983096000000003,4.004370807473275,0.090006676655522
23.985484,4.000600819263787,0.089913059581791
23.987868,3.9980415358677983,0.0897852216743612
23.990264000000003,3.998834827658586,0.0895800736418001
23.992656000000004,4.000699054636012,0.0893540303030509
23.995036,3.998279540866884,0.089215152848924
23.997432000000003,3.989993494485365,0.0891576746208606
23.99982,3.980776282544068,0.0891096927520485
24.009372,3.935479722912632,0.0890730800810052
24.011768000000004,3.925843202090755,0.0890577562948878
24.014156,3.91569482458968,0.089015947534435
24.01654,3.909969957462019,0.0888770862729174
24.018936000000004,3.9042450903343577,0.0887385069875746
24.021324,3.898659992833557,0.0885879438272261
24.023708,3.9002919023855056,0.0883165859677192
24.026108,3.907278487870647,0.0879443800585619
24.028496,3.918688583729202,0.0874740319678595
24.030880000000003,3.92916751402798,0.0870159130073143
24.033276,3.93913458764756,0.0865355496672704
24.035664,3.9473790997744422,0.086060497251815
24.038044,3.950967784102434,0.0856288677085119
24.040444,3.950180179885255,0.0852142741965009
24.042832,3.9454355960034846,0.0847773422024689
24.045216000000003,3.9382242765243434,0.0842578446268811
24.047612,3.9253334158879145,0.0837138981499003
24.05,3.9079737189076975,0.0831124002035361
24.05238,3.8862849552105527,0.0824365363833006
24.05478,3.853609196251172,0.0817543905438888
24.057168,3.8126001690820286,0.081047322741096
24.059548,3.7573913410907336,0.0804000420635134
