Time,Force,Position
25.6909,1.070343934581234,0.1888236586328761
25.712404,1.2292406220292678,0.1886339384631167
25.714788,1.2533507953534098,0.1885270628016086
25.717196,1.2829081924093615,0.1879424664626094
25.719584,1.3179128131971234,0.186894582558969
25.721964,1.3550120825299194,0.185794836846255
25.72436,1.3995606763409416,0.184177712768901
25.726744,1.44583183164466,0.1823941872258278
25.729128,1.49089228213488,0.1808841081554678
25.731524,1.535301106319042,0.1794378870330519
25.733908,1.580920635316703,0.178033682565248
25.736292,1.6246778331948069,0.1769411729736766
25.738688,1.665501764766716,0.1759669548961063
25.741072,1.7116803722718172,0.1745039510407835
25.743456,1.7562761879110826,0.173082975590599
25.745852,1.8071578450433188,0.1710781517757093
25.74824,1.858598580682996,0.1690478372801428
25.750623999999995,1.9152542226290052,0.1664381693898709
25.75302,1.9623186697235115,0.1646086213645625
25.755408,2.0087314905119595,0.1628540763084244
25.757788,2.053701289061432,0.1611869221367062
25.760188,2.097739922051125,0.1595850156966567
25.762576,2.133398065002814,0.1585984344617502
25.764956,2.167473416088667,0.1577604691448761
25.767356,2.1978241049354064,0.1571818446158965
25.769744,2.2280822459835288,0.1565137477250577
25.772124,2.248888961807008,0.1564035029850909
25.774519999999995,2.2741191880039007,0.1560131049917112
25.776908,2.297626852708097,0.1556819785700062
25.779288,2.3215538262928743,0.1552917887523254
25.781692,2.3398938065189823,0.1551798499859648
25.78408,2.355580059692615,0.1551788221868625
25.78646,2.3769005280531608,0.1547853757730329
25.798416,2.446396017091617,0.1545991216863396
25.800796,2.465062758399689,0.1543527017058369
25.803196,2.4817273989613438,0.1542063726724452
25.805584,2.4983920395229973,0.1540632176454537
25.807967999999995,2.519480190458065,0.1536739177530593
25.810364,2.546714413259245,0.1529760843439454
25.812752,2.5691530386346724,0.1524879780965421
25.815135999999995,2.5902884113979843,0.1519849451195818
25.817532,2.611423784161296,0.1515010991732646
25.81992,2.6387052287907182,0.1507179663294957
25.822303999999995,2.656115939314917,0.1503889632659048
25.8247,2.6760878290929733,0.1498905225695567
25.827092,2.692195287005055,0.1495537792343308
25.829472,2.709373680103776,0.1491523283507445
25.831872,2.727483238762276,0.1487153628087044
25.83426,2.7445218622341367,0.148354525846345
25.836644,2.7596981545864416,0.1480605736780922
25.839044,2.782743080297553,0.1474665238168616
25.841432,2.8100717467552188,0.1466829070912317
25.843816,2.837819722093465,0.1458336248196286
25.846212,2.8633332792598174,0.1450326925780144
25.8486,2.887171496761716,0.1442042846430589
25.85098,2.9124999583308337,0.1432717868970072
25.85338,2.9381079591536725,0.1423133236520959
25.855768,2.9590601321776195,0.1415319281764244
25.858148,2.976147873335593,0.1408998159284176
25.860544,2.996168880799761,0.1401569723258325
25.862936,3.015770579383349,0.1394583027455904
25.865316,3.034580882034019,0.1387836099821282
25.867712,3.049526752818715,0.1382527247131446
25.8701,3.0666144939766884,0.1376055692897643
25.872484,3.083422695880941,0.1370107029081452
25.87488,3.103955560024307,0.1363008279013742
25.877268,3.1256991289811724,0.1355315707310274
25.879648,3.1477222371917577,0.1347358000453344
25.882048,3.169745345402344,0.1339573763328073
25.884436,3.191628683986069,0.1331830259345517
25.886816,3.204851993278069,0.1327105085589551
25.889212,3.2148624970101523,0.1323764970907468
25.891604,3.2265955622349334,0.132011908021098
25.893984,3.2397716496986906,0.1316558642596753
25.89638,3.2518295801475654,0.1314342625421569
25.898772,3.26374774096958,0.1312323144132917
25.901152,3.2760379888439326,0.1310733362108086
25.903552,3.2880486974645646,0.1309460343630795
25.90594,3.297777766085059,0.1309097501648892
25.90832,3.30950893545197,0.1308139061649151
25.91072,3.326035702244633,0.1305886286136574
25.913108,3.344145260903133,0.1303560620322789
25.915492,3.363837611427468,0.130111223574644
25.917888,3.392189991243529,0.1296479543096836
25.920276,3.4193316662460917,0.1292429207318282
25.922656,3.445402406062015,0.128878705714726
25.925056,3.473055937743775,0.1285119791845433
25.927444,3.499219225358316,0.1282253627931024
25.929824,3.5220299377860806,0.1280584153491271
25.932224,3.5507071828262364,0.1277428720908929
25.934612,3.5788253493589504,0.1274760301132059
25.936992,3.604522106264668,0.1273036109931856
25.939392,3.631010259103303,0.1271312442779209
25.94178,3.653494210449104,0.1270710666547167
25.951332,3.73975067956357,0.1270415813546993
25.953728,3.769264646507018,0.1268549419475453
25.95612,3.798499074196745,0.1267064834192964
25.968067999999995,3.9196222903299818,0.1266335091394507
25.972843999999995,3.970082742723769,0.1266135153261737
25.97524,3.99610436485358,0.1265968827350346
25.977628,4.028272058849503,0.1264264265851434
25.980011999999995,4.0582978824721465,0.1263261832277597
25.982408,4.0924676772144855,0.1261193267046807
25.984796,4.134134018263294,0.1257150637428236
25.987179999999995,4.174217567446267,0.1253270820106832
25.98958,4.221238584428269,0.1247962040445208
25.991968,4.271472406970186,0.1241876030238062
25.994347999999995,4.3266415965647145,0.1234908002060267
25.996748,4.385535448398357,0.1227370480576201
25.999136,4.446571170605276,0.1219432301840863
26.001515999999995,4.504673626506,0.1212345983578186
26.003916,4.560913751287167,0.1205629176518705
26.006304,4.61300990494864,0.1199920866067136
26.008688,4.670181195289587,0.1193151573046146
26.011084,4.723720371190037,0.1187436198418563
26.013476,4.778982108583183,0.118157744717583
26.015856,4.83303314116283,0.1176168856389911
26.018256,4.885501381876641,0.1171040131478109
26.02064,4.937317996284394,0.1165910461235191
26.023024,4.997143013677815,0.1159501097140196
26.02542,5.054034764765039,0.1153771853560134
26.027812,5.111345824732846,0.1147876749885368
26.030192,5.169727819887291,0.1141918130786174
26.032592,5.221823973548764,0.1137325785448588
26.03498,5.276573854262711,0.1132560076796029
26.03736,5.323594871244713,0.1128999264051704
26.039764,5.3681019308011,0.1125679752085362
26.042152,5.405951061812178,0.1123305240885527
26.044532,5.445430206517335,0.1120472619837122
26.046928,5.483186789729797,0.1117834257052213
26.049316,5.523504552196116,0.1114636298111631
26.051696,5.56703512022235,0.1110916070801183
26.054092,5.611636623435224,0.110697682137517
26.05648,5.654515565155401,0.1103235111294995
26.05886,5.7030287220624905,0.1098366744040407
26.061256,5.745023720051133,0.1094158752624902
26.063644,5.785435926173938,0.1089981330838121
26.066024,5.821424621923329,0.1086663930891852
26.06842,5.856482152112942,0.108347224063335
26.070808,5.880086156331495,0.108172456641253
26.073192,5.903829930176906,0.1079914919776925
26.075588,5.92650276883568,0.1078325288649066
26.077976,5.945311175628481,0.1077224971260066
26.080356,5.967332387981196,0.1075592588554037
26.082752,5.987491269214355,0.1074177812885182
26.08514,6.014587618246543,0.1071874432869922
26.08752,6.042195823957929,0.1069743551426852
26.089915999999995,6.072877065602372,0.1067168754314352
26.092304,6.098203631313621,0.1065504626173928
26.094684,6.123530197024869,0.1063865704265507
26.097088,6.139497885310092,0.1063600642628505
26.099476,6.156256969528233,0.1063353781026286
26.101856,6.177299794492927,0.1062467313336159
26.10426,6.201415655390677,0.1061209569935689
26.106648,6.2246003507286485,0.1060074639546385
26.109027999999995,6.258866484985343,0.1057603917400855
26.111424,6.299138921481287,0.1054478440959043
26.113812,6.341553228350509,0.1051007377991352
26.116192,6.383967535219732,0.1047545494727545
26.118592,6.434902101753819,0.1043309035415331
26.120976,6.483694797914628,0.1039394791563518
26.12336,6.527412357395967,0.1036079308896438
26.125756,6.569919212063807,0.1032962733700986
26.12814,6.609632570052312,0.1030117021717077
26.130524,6.6474835969212585,0.1027439358374811
26.13292,6.680399256737593,0.1025346602947767
26.135307999999995,6.714944930248008,0.1022847058050571
26.137688,6.749770143012144,0.102024019774022
26.17116,6.822720234325342,0.1018069111192912
26.17354,6.817739541302355,0.1017797862095095
26.175936,6.81196745234645,0.1017527718642452
26.185492,6.768348128237337,0.101724350972055
26.187872,6.755825562937506,0.1017191773581555
26.190268,6.745724407264674,0.1016712112186363
26.19266,6.736694186778481,0.1016087850108387
26.19504,6.727524196665428,0.1015538180016323
26.197436,6.72636260953804,0.1014116468025616
26.199824,6.728553597597431,0.1012180705467866
26.202204,6.728090858604346,0.1010387330540335
26.204608,6.730701155544315,0.100823315057382
26.206996,6.731728660618448,0.1006062418296959
26.209376,6.727401489759389,0.100462812038289
26.211772,6.71706801666108,0.1003858229554325
26.252372,6.503857645482014,0.1003471116375011
26.254768,6.49780601727239,0.1003322475159083
26.257155999999995,6.496969295369098,0.1002520318228502
26.25954,6.496132573465807,0.1001711872166053
26.261944,6.493945377122157,0.1001196866872701
26.264332,6.492037720032226,0.1000534524631188
26.266712,6.49320309887535,0.0999500116358314
26.269108,6.499443614397948,0.0997865646946834
26.271496,6.504892733987627,0.0996237412342537
26.27388,6.504475320964915,0.099519857189263
26.407692,6.281069350456531,0.0994831428337565
26.422028,6.281860746389448,0.0994829418906346
26.424408,6.285585408628561,0.0994530908298595
26.426808,6.288099366054175,0.0994457868950563
26.429196,6.29661962571904,0.099370295673586
26.431576,6.3048603461301855,0.0993103884452701
26.433972,6.311658044302355,0.0992431975811476
26.43636,6.318455742474523,0.0991754565399966
26.43874,6.32632437583333,0.0990929457756211
26.44114,6.336986505871473,0.0989882715021115
26.443528,6.3497905062828925,0.0988535600445095
26.445908,6.3604526363210345,0.0987500350110665
26.448304,6.370183600799397,0.0986543986143025
26.450692,6.381265039718119,0.0985284803552969
26.453076,6.395699053823619,0.0983512672619046
26.455472,6.406268636063143,0.0982116015549959
26.45786,6.416046822369751,0.0980721804194135
26.460256,6.427455022370438,0.0978891912138961
26.462652,6.438863222371125,0.0977073230646188
26.46504,6.452553062371948,0.0974883222656789
26.46742,6.465963363119052,0.0972841642031899
26.46982,6.481655303866293,0.0970421853542187
26.472207999999995,6.489338841627866,0.0968889497425815
26.474592,6.499164249762715,0.0967067878378787
26.476988,6.508198261964647,0.0965258122686589
26.479375999999995,6.514578547114104,0.0963579978783756
26.48176,6.517746026703646,0.0962326893543966
26.484156,6.523334915920184,0.0960639114739254
26.486543999999995,6.526130308457389,0.0959160994534978
26.488924,6.524549412449423,0.0957884593694141
26.49132,6.522037350881676,0.0956679753679408
26.493708,6.519525289313931,0.0955474861494251
26.496088,6.516082062186407,0.0954337860257586
26.498492,6.513709770245522,0.0953059287392894
26.500884,6.507333276811803,0.0952201050138634
26.503264,6.499234221885388,0.0951404209057966
26.50566,6.490204001399194,0.0950674558586218
26.508052,6.480335163151839,0.0950385196428316
26.510432,6.469674928971567,0.0950086414063966
26.512832,6.459806090724212,0.0949789480185483
26.51522,6.451427496544076,0.0949130929251245
26.517604,6.44398006792372,0.0948404486516256
26.52,6.440024984116998,0.0947112792946034
26.522388,6.437140835496916,0.0945687237893296
26.524772,6.434116917249973,0.0944337205716105
26.527168,6.435236970122724,0.094251411462731
26.529551999999995,6.442363325234726,0.094009060815896
26.531936,6.447999436279508,0.093802481136648
26.534332,6.454147404003487,0.0936099573317124
26.536719999999995,6.464671660272638,0.0933995602044982
26.5391,6.472262650235595,0.0932148210589679
26.5415,6.481715971318107,0.093018158306409
26.543887999999995,6.493031623520177,0.0928089821107858
26.546272,6.504067736468524,0.0926153432971873
26.548668,6.520690842775545,0.0923850497005531
26.551056,6.543180481694953,0.092103827682978
26.553439999999995,6.5686033869205565,0.0917983402324918
26.555836,6.591791873974267,0.0914822739057177
26.558224,6.615911526587755,0.0911619715882848
26.560607999999995,6.637889308827967,0.0908682636618924
26.563004,6.656654285508263,0.0906146509159936
26.565396,6.671554830322585,0.0903920073998758
26.567775999999995,6.686827462189245,0.0901938766688414
26.570172,6.700097993309488,0.0900162333647099
26.572564,6.713228754802871,0.0898465416046263
26.574943999999995,6.724077876296117,0.0897108414258679
26.577344,6.7321335011100265,0.0895938835178583
26.579736,6.740608434804519,0.0894561605898442
26.582116,6.751644547752867,0.0892722635118841
26.584516,6.760958099208519,0.0890937143961689
26.586904,6.776138183276562,0.0888673957520042
26.589288,6.787593605105491,0.0886641922589902
26.591684,6.79904902693442,0.088462058252465
26.594072,6.8075711824571545,0.0882832350206467
26.596456,6.81036657499436,0.0881456466548948
26.598852,6.809809392344789,0.0880527606334906
26.60124,6.806179173762161,0.0879901512651251
26.60362,6.8032005814855925,0.0879355126760049
26.60602,6.797009183649108,0.0879179461356592
26.608408,6.794170360999399,0.0878564078805427
26.610788,6.793985265402164,0.0877851497334789
26.613188,6.801529033536877,0.0876567569081627
26.615576,6.803206269059199,0.0875744768711701
26.617956,6.8058146701413,0.0874869155450898
26.620356,6.805629574544066,0.0874156830263277
26.622744,6.805584248573694,0.0873376151656655
26.625128,6.807261484096016,0.0872557896499659
26.627524,6.808659180364619,0.0871876578199518
26.629912,6.8117794381259165,0.0871162613364097
26.632296,6.8128975951407975,0.0870620554773789
26.634692,6.809080385103068,0.087047848126331
26.63946,6.803540613572641,0.0870374198895452
26.64186,6.803308296147162,0.0870088202573388
26.644248,6.806940410587658,0.0869523331102445
26.646628,6.812993934655152,0.086858689655992
26.649024,6.821049559469063,0.0867479322518271
26.651416,6.831107285029391,0.0866201030127825
26.653796,6.847171312828969,0.0864416412553047
26.656192,6.86081393100155,0.0863013515362812
26.65858,6.879950994734184,0.0860989779568788
26.660964,6.893501065108147,0.0859285639088038
26.663364,6.914268142534859,0.0856906903471964
26.665752,6.935035219961573,0.0854542199433869
26.668136,6.959806498881119,0.0851856801832492
26.670532,6.986440108920222,0.084909110822564
26.67292,7.012282323026406,0.0846333347129116
26.6753,7.040266407505869,0.0843368332527247
26.677704,7.065177456052277,0.0840695185848801
26.680091999999995,7.093021770904879,0.0837815412625922
26.682472,7.125661683183232,0.0834647502663785
26.684872,7.161514401021501,0.0831171116366145
26.687259999999995,7.199369219606186,0.0827556519341867
26.68964,7.239365908564149,0.0823769040398687
26.69204,7.278571201589194,0.0819997558604995
26.694427999999995,7.314703458681183,0.0816507598403924
26.696808,7.351115255026893,0.0812920677130286
26.699208,7.386735655439685,0.0809332388074837
26.701592,7.417560458426725,0.0806048882442732
26.703976,7.448013174361428,0.0802559602330871
26.706372,7.466732825071349,0.0799836543661937
26.708763999999995,7.484102001340913,0.079733008378007
26.711144,7.495325105744366,0.0795324511540963
26.71354,7.505617044588039,0.079336591189182
26.715931999999995,7.517911084178129,0.0791290151577781
26.718312,7.5275513967157455,0.0789279980108398
26.720712,7.532256342200749,0.0787584834393388
26.723099999999995,7.536169891752835,0.0785878502626684
26.725484,7.539571584625725,0.0784027814752217
26.727884,7.542461420819415,0.0782038896609837
26.730267999999995,7.541906134027712,0.0780088212551712
26.732652,7.536555249810258,0.0778388833399945
26.735048,7.52761947298055,0.0776777846509245
26.737435999999995,7.513748329098233,0.077547109825688
26.73982,7.497875084469497,0.0774294957760778
26.742216,7.484655566893236,0.077306917858397
26.744603999999995,7.468363013383919,0.0772067630912084
26.746984,7.450719985434243,0.0771280739403897
26.749384,7.433076957484566,0.0770491056195244
26.751771999999995,7.415014620654309,0.0769877981269565
26.754156,7.407334874608476,0.0768804742773706
26.756552,7.405149574122693,0.0767192591575207
26.758944,7.411252215876299,0.0764944983822668
26.761324,7.418705332070265,0.0762491443500817
26.76372,7.418429584532283,0.0760435739155002
26.766108,7.421226872927355,0.0758164881576907
26.768491999999995,7.430170233188541,0.0755451384930886
26.770888,7.437391031957028,0.0752753309602407
26.773276,7.440887168486403,0.0750171995648199
26.775659999999995,7.440518873149804,0.0747773518372386
26.778056,7.434843123708255,0.0745430729471788
26.780444,7.425489933855838,0.0742801843407335
26.782827999999995,7.406313231726438,0.0740307942785284
26.785224,7.380665592506832,0.073760449861607
26.787616,7.344962123584771,0.0734746082390285
26.789995999999995,7.29361583160158,0.0731933662696319
26.792396,7.231003005102432,0.0729121139281946
26.794788,7.161966463341321,0.0725600798023757
26.797168,7.081431069638778,0.0721703905440545
