Time,Force,Position
26.7346,2.3375053727345616,0.1550467276865328
26.789552,2.36320023378241,0.1543414405943708
26.791936,2.3712067409102078,0.1542686653776797
26.794332,2.378793939157425,0.1542618790990682
26.796724,2.3911767348303945,0.1540394201699544
26.799104,2.4016971993838068,0.1538889070169357
26.801504,2.416873491736111,0.1535224629890059
26.803892,2.436845381514168,0.1529119882521064
26.806272,2.4483895594259755,0.152801645680862
26.808672,2.4619358380842007,0.1525886940986266
26.81106,2.4736197856228688,0.1524755235030855
26.81344,2.492520740214286,0.1519754018265252
26.815836,2.514354961111899,0.1513486933663342
26.818224,2.533907542009374,0.1508742098526993
26.820608,2.5465226551078213,0.1507293834675979
26.830172,2.5840865592915714,0.1506713064285527
26.83256,2.599262851643876,0.1503628044681434
26.834944,2.6156498488096798,0.1499758096499713
26.83734,2.6313852196694243,0.1495975046507936
26.839732,2.6487506042232494,0.1491014367731362
26.842116,2.6705394991504874,0.1483850912883415
26.844512,2.6906058325850304,0.1477450462658615
26.846904,2.715607533072185,0.1469105055572506
26.849284,2.7446134350521723,0.1459467033204343
26.851684,2.773619337032161,0.1450029446712422
26.854068,2.8097024764380376,0.1437484107161036
26.856452,2.8465770117768328,0.1425183501617606
26.858848,2.881030137488631,0.141433119233565
26.86124,2.911339292080734,0.1405493525465398
26.86362,2.936713079620226,0.139847164086726
26.866016,2.9651599030927733,0.1390339946831946
26.868408,3.0004044247374897,0.1379721897599724
26.870788,3.035648946382206,0.1369050895770229
26.873184,3.068891367280505,0.1358893236274866
26.875576,3.101574709671363,0.1349424048660906
26.877956,3.135980613554917,0.1339772030191323
26.880356000000003,3.165730689639581,0.1331892034504177
26.882744,3.1973430968438,0.1323665083421687
26.885128,3.22909527367488,0.1315494967101617
26.887524000000003,3.261499076812018,0.1307835747807511
26.889912,3.288687973642824,0.1302223482649364
26.892292,3.313595230473492,0.1297649322358003
26.894692000000003,3.3383627176773003,0.1293435614934542
26.89708,3.360196938574913,0.1290267145688047
26.89946,3.378166727606553,0.1288124109481963
26.901856,3.396276286265052,0.1285942373417051
26.904248,3.4106611826844384,0.1284641797727984
26.906628,3.426536323171044,0.1282518162956562
26.909024,3.4454844995907044,0.127950252080465
26.911416,3.469647582316697,0.1274844239297394
26.9138,3.4931590387366325,0.1270254985356244
26.916196000000003,3.517601660716346,0.1265642941833308
26.918584,3.544977549002255,0.1260361517346532
26.920968,3.576637178034718,0.1253684488686946
26.923368,3.612720317440594,0.1245630720413127
26.925756,3.645078794607359,0.1238404805770913
26.928140000000003,3.681022164386376,0.1230709575217813
26.930536,3.7151032030458366,0.1223538691573153
26.932924,3.749044472078437,0.1216656747109663
26.935308000000003,3.77483756849851,0.1211876713850712
26.937704,3.8027725352918593,0.1206435525518486
26.940092,3.829916106152291,0.1200978886326742
26.942476000000003,3.8539866410796666,0.119639988451908
26.944872,3.874984140073988,0.119264141042551
26.94726,3.9050609772406144,0.118671467640681
26.949644000000003,3.930062677727769,0.1182094524527756
26.952044,3.95706647896134,0.117697429253535
26.954432,3.984210049821771,0.1171804290395386
26.956812000000003,4.007209649562509,0.1167762494447161
26.959212,4.028067378929969,0.1164415280635915
26.9616,4.045712302737514,0.1161983251779085
26.963984,4.057630463559529,0.1160694255928907
26.96638,4.067546523635127,0.11598851989102
26.968772,4.080256080390059,0.1158652420846054
26.971152,4.089752831585077,0.1158288747618183
26.973552,4.103253784272927,0.1157083222555488
26.97594,4.112750535467946,0.1156739350279029
26.980716,4.133047290470096,0.1156268106759138
26.983104,4.148270804650643,0.1154905678634655
26.985488,4.162423383644552,0.1153815791764711
26.987884,4.178578063384878,0.1152302828536041
26.990272,4.196874613498481,0.1150260951199442
26.992656,4.215450702865804,0.1147944081294204
26.995052,4.228811885926795,0.1146933009115145
26.99744,4.248179371227037,0.1144720937891197
26.999824,4.26647592134064,0.1142774030291453
27.002232000000003,4.286215493693219,0.1140939072661447
27.00462,4.31130974197899,0.1137874368753562
27.007004,4.338406091011179,0.1134488124870581
27.009404,4.370437807095978,0.1130247132884533
27.011788,4.407265120606532,0.1125225349475529
27.014172,4.44623430449036,0.1119798286322241
27.016568,4.478405790202021,0.1115583031897456
27.01896,4.508714944794125,0.1111612524463418
27.02134,4.537021998639812,0.1108085530696051
27.02374,4.566679526925857,0.1104108641481206
27.026128,4.593683328159429,0.1100490442801747
27.028512000000003,4.626321344579913,0.1095494715523364
27.030908,4.658028195440619,0.1090733743924367
27.033296,4.693879017421019,0.1085250767780847
27.035680000000003,4.730800774588058,0.1079612539598235
27.03808,4.767862301381957,0.1073960964479637
27.040468,4.8106505911613855,0.106759992795091
27.042852,4.846780952395505,0.1062066702187
27.045248,4.879046881763652,0.1057184625207067
27.047636,4.9131751422513545,0.1052090790665589
27.05002,4.947582941992779,0.1046900828653724
27.05242,4.975565130614372,0.1043015104150849
27.054808,5.00033451367605,0.1039790841083574
27.057192,5.02310179599131,0.1036952163931746
27.059588,5.046940013493209,0.1033988200797597
27.06198,5.069707295808469,0.1031277718665361
27.064364,5.097270175549482,0.102796910077137
27.066764000000003,5.128697487156467,0.1024177403185199
27.069152,5.1599850291365925,0.1020499943940597
27.071536,5.192995132609414,0.1016775667809976
27.073932000000003,5.22386336570896,0.1013437899323625
27.07632,5.2515187932485885,0.1010726505996233
27.078704,5.276892580788081,0.1008501150219824
27.081104,5.299053562767657,0.100688233163366
27.0835,5.323216645493649,0.1005041976882174
27.08588,5.347379728219643,0.1003239830762217
27.08828,5.368749314266301,0.1001758956365016
27.090672,5.399989634418184,0.0999045109551797
27.093052,5.43430299050312,0.0995934491785266
27.095452,5.471037756215055,0.0992381605291882
27.09784,5.503908090061017,0.0989282465379636
27.100224,5.541993330213312,0.0985413310353624
27.102624,5.583291375925523,0.0981063036414098
27.105012,5.621376616077817,0.0977215264724873
27.107396,5.656528589923915,0.0973766916814964
27.109792,5.690469858956514,0.0970589997466706
27.11218,5.723340192802476,0.0967621915719166
27.114564,5.755279361088661,0.0964779908651956
27.116964,5.791222730867678,0.0961515392671774
27.119352000000003,5.825024230273417,0.0958596913791288
27.121736,5.862829931171991,0.0955226831664928
27.124152,5.90235819356326,0.095179954695501
27.126544,5.942305764835111,0.094812188327823
27.128928,5.982532875360683,0.094430403066067
27.131336,6.020338576259256,0.0941022899531437
27.133724,6.0597270690236655,0.0937812204068334
27.136104,6.098556483280635,0.0934943833342185
27.138508,6.132962387164191,0.093279861365229
27.140896,6.167740378100084,0.0930941889137312
27.143276,6.201959290528534,0.0929450717957872
27.145672,6.239483556315518,0.0927914490318798
27.640264,7.507692782339229,0.0927455241134965
27.642656,7.514490480511398,0.0926958121167157
27.645036,7.520357013123788,0.0926514553780823
27.647432,7.53087937353507,0.0925808982774537
27.64982,7.544754309133128,0.0924700648377956
27.652204,7.558769014358046,0.0923539641136912
27.6546,7.581490970702931,0.0921414111538244
27.656988,7.600488264808705,0.0919508740231579
27.659368,7.625491861153728,0.0917120726768186
27.661764,7.6524975582451695,0.0914571259397045
27.664156,7.683507456829442,0.0911693801963198
27.666536,7.708650822801327,0.0909247478798166
27.668936,7.73458558470613,0.0906798727185398
27.671324,7.768016892917401,0.0903537673231627
27.673708,7.795209581463944,0.0900543093176102
27.676104,7.817606672584737,0.0897894125919081
27.678492,7.838281202212833,0.0895293655471939
27.680876,7.854671991094374,0.0893158769131507
27.683272,7.874415355162691,0.0890646421137874
27.68566,7.900165021470259,0.0887674761609605
27.688044,7.928708184457162,0.0884566264902922
27.69044,7.952688067443789,0.0882045893524509
27.692828,7.980392612669532,0.087934857549232
27.695212,8.004652034909881,0.0876746582600118
27.697608,8.026769586776954,0.0874367215910866
27.699996,8.048887138644025,0.0872003967789146
27.70238,8.067140258645123,0.0869914931165817
27.704776,8.085253609019361,0.0867878097352387
27.707164,8.10257556346068,0.0865859627660693
27.709548,8.120968453088638,0.0863755614393368
27.711944,8.13843017715682,0.0861707799933548
27.714332,8.160967037904472,0.0859274589442868
27.716716,8.189510200891375,0.0856440293380859
27.719116,8.21577172387814,0.0853874086515663
27.721504,8.243755808357601,0.0851277905011617
27.723884,8.270948496904145,0.0848665803534313
27.726284,8.298420724704409,0.0845946450693154
27.728672,8.329105758064589,0.0842956013815705
27.731056,8.357369381797772,0.0840289331754046
27.733452,8.3825599695979,0.083788429481189
27.73584,8.40588822627847,0.0835570848534019
27.738224,8.429775561466482,0.0833049952608654
27.740624,8.45086939997516,0.0830662131226226
27.743016,8.469821368110559,0.0828457888789856
27.7454,8.493196846619371,0.0825850028707586
27.747796,8.518434656247742,0.0823189570896318
27.750184,8.542601530689474,0.0820634496753489
27.752568,8.572914476997317,0.081766709941582
27.754964,8.600294156998961,0.0814887484278129
27.757352,8.62795337625433,0.0812031731446218
27.759732,8.656823300323197,0.0809056892971362
27.762132,8.685693224392061,0.0806108245691667
27.76452,8.710698716594955,0.0803383625097008
27.766904,8.737194452865067,0.080043050983445
27.769304,8.768765325814652,0.0797189079751566
27.771692,8.802478069137512,0.0793788932362829
27.774072,8.841405718766708,0.0790068733798651
27.776472,8.877400102089705,0.078652370476172
27.77886,8.911951463173729,0.0782887927640389
27.781244,8.943616779779799,0.0779083932996489
27.78364,8.976120714147031,0.0774996446405948
27.786028,9.002386028849534,0.0771015000121186
27.788412,9.020969701648331,0.0767024082453822
27.790808,9.035875934036262,0.0762795770763504
27.793196,9.03588351746774,0.0759032886490038
27.79558,9.021970839330786,0.0755359623155786
27.797976,8.99893349705115,0.0751558714494087
27.800364,8.958251230963972,0.0747941668091809
27.802748,8.902857307375442,0.0744340437782153
27.805144,8.82860775516587,0.0741031114354286
