Time,Force,Position
26.494832,1.842904992204712,0.1660101418260064
26.513956,1.9753305895349331,0.1650947818082474
26.516336,1.9931114912536,0.1649828892268397
26.518732,2.0110321625991268,0.1648560158720134
26.52112,2.0323054091314297,0.164448741986
26.523504,2.0517163245441754,0.1641531885791662
26.525904,2.072477714397281,0.1637296775534789
26.528292,2.094310039437024,0.1632376865013494
26.545008,2.1855415140008683,0.1629568712755617
26.547408,2.200902901950407,0.162757002673593
26.549796,2.224272692885613,0.1620601787328921
26.552176,2.2457801527012617,0.1614467362112546
26.554572,2.2754357851294387,0.1603412109742919
26.55696,2.306581661624835,0.1591341017836797
26.559344,2.33730822923965,0.1580601640800469
26.56174,2.369385271294825,0.1568889402377263
26.564128,2.398389277416943,0.1559274096124239
26.566512,2.4261825787255638,0.1550662988555523
26.568908,2.453556571153603,0.1543013065159282
26.5713,2.484934765074476,0.1533567016408905
26.57368,2.5140313189952126,0.1525640941906278
26.57608,2.540986002542671,0.1518960664098937
26.578464,2.569523477955966,0.1512026017463046
26.580848,2.59927165818276,0.1504281471015781
26.583244,2.625015636916721,0.1498573722242424
26.585632,2.655974521957014,0.1490262676040585
26.588016,2.688935507743723,0.1480982525902891
26.590412,2.718823457597377,0.1473410658878871
26.5928,2.750993047451168,0.1464585210307504
26.595184,2.778878896558405,0.1458244970594051
26.597584,2.807044284919363,0.1451841994477163
26.599972,2.8392138747731543,0.1443750066058221
26.602356,2.8657964712682755,0.1437991479740078
26.604756,2.89023719739012,0.1433434312453784
26.607144,2.910953261272851,0.1430130626964728
26.609528,2.929527454782305,0.1427852784091729
26.611928,2.9485209571723394,0.1425028891401767
26.614316,2.967793998816095,0.1421836489195726
26.6167,2.985344478967154,0.1419083761741367
26.6191,2.999030527252239,0.1417787041226864
26.621488,3.014067049977683,0.1415640294109382
26.623872,3.028451946397069,0.1413364203467042
26.626272,3.038320784644424,0.1412370423034256
26.62866,3.048049853264918,0.1411579300650302
26.640604,3.0855684314782947,0.1410290270722292
26.642988,3.0924114556208373,0.140965429354833
26.647768000000003,3.103815863905785,0.1409571263412323
26.650156,3.111590053608106,0.1408780224755449
26.652536,3.1187126170043693,0.1407925089932375
26.65494,3.131329625960685,0.1404818374790876
26.657328,3.1451573397304995,0.1401125285965723
26.659712000000003,3.160195758313813,0.1396933169964153
26.662104000000003,3.176724420964345,0.1391933920451114
26.664496,3.196465889174793,0.1385811830255672
26.666876,3.216486896638961,0.1379368660944315
26.669272,3.23650790410313,0.1372990727737873
26.67166,3.262674983433409,0.1364718519513566
26.674044,3.294988134629799,0.1354422490789155
26.67644,3.329722695453187,0.1343276513073125
26.678828,3.360872363664321,0.1332887849213944
26.681208,3.3983078733684278,0.1320614792843955
26.683604,3.4356036134456724,0.1308517441825411
26.685992,3.476903555015751,0.1295489866526059
26.688372,3.5216958413994663,0.1281247706103424
26.690772,3.5622043870366267,0.1268493996215915
26.693156,3.601269910434812,0.1255978230054611
26.69554,3.638193563459719,0.1244186128713077
26.697936,3.669250683872237,0.1233960747906726
26.700324,3.698165933911477,0.1224365848945725
26.702708,3.719864176897968,0.1217053045102586
26.705104,3.742912894324818,0.1209232075954009
26.707496000000003,3.762097179885695,0.120239729007461
26.709876,3.7779288902597954,0.1196780283791473
26.712272,3.789756399141063,0.1192289298321879
26.71466,3.8023753039552473,0.1187770862139771
26.717044,3.814342582463375,0.1183193382475003
26.71944,3.820303558732251,0.1180235658885074
26.721828,3.822911959814352,0.1178409156195169
26.724208,3.823238720896315,0.1177369597758708
26.740936,3.793679427982494,0.1176691818848162
26.743324,3.7877675693997297,0.1176561575973334
26.745708,3.784137350817103,0.1175713801026441
26.748104,3.78479087298103,0.1173681995813131
26.750492,3.7874464958913743,0.1171159199185738
26.752876,3.7868893132418022,0.1169543861841798
26.755280000000003,3.787914922458068,0.1167851417322393
26.757668,3.792013567607388,0.1165397699524531
26.760052,3.7951810471969294,0.1163089841486625
26.762448000000003,3.796346426040054,0.1161253393537879
26.764836,3.79616133044282,0.115998530614992
26.767216,3.795045069285808,0.1158880737444002
26.769612,3.795139512942294,0.1157336854326353
26.772004,3.796165122158558,0.115563514966037
26.774384,3.7929069906282686,0.1155140698550052
26.776784000000003,3.794072369471394,0.1153308612312658
26.779172,3.7937475042473,0.1152186585694382
26.781556,3.794493574209844,0.1150764586146878
26.783952000000003,3.797893371224863,0.1148959002448366
26.786344,3.8012931682398814,0.1147184312671392
26.788728000000003,3.8036220300682624,0.114570417506553
26.791124,3.804600417456284,0.1144785604103432
26.793512,3.811305567829835,0.1142809224904694
26.795892,3.816800013389888,0.1141275808961273
26.798288,3.826298660442775,0.1138899294127265
26.800676,3.838870343428717,0.1135836319823716
26.803056,3.853583896787936,0.1132247511337067
26.805456,3.866574888654458,0.1128872428621881
26.807844,3.8814282116405368,0.1125175786173895
26.810224,3.898423404999893,0.1120931261246443
26.812624,3.918631403919166,0.1115891089150272
26.815012,3.941632899517773,0.1110385436274555
26.817392,3.961701128810184,0.1105440625169319
26.819792,3.98018656623676,0.1100593017829225
26.82218,3.999463399596253,0.1095734694040739
26.824564,4.018320924075167,0.1091258520794002
26.82696,4.036526822248021,0.1086695907121833
26.829348,4.052590850047599,0.1082641296371114
26.831728,4.072798848966871,0.1077709433349935
26.834124,4.090725207886005,0.1073474989305526
26.836512000000003,4.106230157178143,0.1069948273724962
26.838892,4.12215441535086,0.1066054946349832
26.841284,4.131141205724548,0.1063580508837623
26.843672,4.139057060911599,0.1061380624633828
26.846068,4.142037549046037,0.106013014033774
26.853232,4.134031041918239,0.1059688252441851
26.855628,4.133007328559843,0.1059235774230131
26.858012,4.131192219268531,0.1058795916742978
26.860396,4.1293771099772165,0.10583562565716
26.862792,4.128912475126263,0.1057441840585061
26.865176,4.13352297695478,0.1055561912445154
26.86756,4.138133478783298,0.1053689568553925
26.869956,4.14158049762656,0.1051489448234088
26.872344,4.148380091656598,0.104849275621887
26.87474,4.155179685686637,0.1045501708082327
26.877136,4.164912546022869,0.104202387156858
26.879524,4.16957026967963,0.1039513654430501
26.881904,4.176509633336528,0.1036445827215787
26.884304,4.191736939232814,0.1031789196874551
26.886688,4.205613770688741,0.1027579335923724
26.889072,4.224006660316699,0.1022906941067988
26.891468,4.243190945877576,0.1018239297104232
26.893852,4.270895491103317,0.1012513173807917
26.896232,4.3033956337548105,0.1006132345219749
26.898636,4.335476467525723,0.1000075517568691
26.901024,4.370211028349112,0.0993796857213684
26.903404,4.402524179545501,0.0988273419233215
26.905800000000003,4.436280352980867,0.0982905209052388
26.908192,4.469477447908792,0.0978049076481877
26.910572,4.503046629889055,0.0973623119941384
26.912968000000003,4.536987898921654,0.0969649623770004
26.915356,4.572232420566371,0.0965921904872826
26.917736,4.6105027563159,0.0962369979337957
26.920132,4.647422617625069,0.095932839669186
26.92252,4.686065040426935,0.0956231869854589
26.924904,4.727640729534995,0.0952828613236864
26.9273,4.775222720882306,0.0948632314091008
26.929688,4.820523072229481,0.0944967020746958
26.932084,4.862610618016739,0.0942002355482979
26.93448,4.90963353085661,0.0938441440856008
26.936868,4.952931781457367,0.0935242545280534
26.939248000000003,4.996230032058124,0.0932052322164628
26.941644,5.029005922247599,0.0930042870173449
26.944032,5.05763784131738,0.0928672028047948
26.946412,5.089622335573938,0.0926692045230467
26.948816,5.120815433897577,0.0924722021221538
26.9512,5.151356905915157,0.0922643725964278
26.95358,5.1820381475596,0.0920501225847707
26.95598,5.2111365973382044,0.0918343024137952
26.958368,5.239583420810751,0.0916124440522919
26.960748,5.260301380551353,0.0914719054617731
26.963148,5.281438649172536,0.0913058732569966
26.965532,5.301504982607076,0.0911587068453406
26.967916,5.3205003808549804,0.091029727320629
26.970312,5.338424843916245,0.0909186794527404
26.972704,5.355278371790872,0.0908275454142086
26.975084,5.365985827799388,0.0908178525586059
26.97748,5.381628650860517,0.0907549100875473
26.979868,5.398062869854563,0.0906946279467632
26.982248,5.413426153661971,0.0906523402305101
26.984644,5.430651768588935,0.090595379164508
26.987032000000003,5.451090189075814,0.0904941852278196
26.989416,5.479117703667781,0.090328296732307
26.991812,5.51236012456608,0.0900960534608567
26.994200000000003,5.543320905464242,0.0899061439580951
26.99658,5.579217053415015,0.0896722470935091
26.99898,5.623121604351456,0.0893628502036526
27.001368,5.667026155287898,0.0890573790211534
27.003764,5.714655368463452,0.0887304391579265
27.00616,5.759071776079092,0.0884466648166749
27.008548,5.813358917799955,0.0880683081338259
27.010932,5.867506289893958,0.0877033715998525
27.013328,5.921002035681903,0.0873307390722261
27.015712,5.975428947029626,0.0869537385111862
27.018092,6.031857959123767,0.0865604383918005
27.020492,6.083211834538434,0.0862199844717714
27.022876,6.138709681072796,0.0858331027193814
27.02526,6.188992621300825,0.0855114455975967
27.247476,5.815210048390786,0.0852886488575878
27.249872,5.814418652457867,0.085286635447045
27.25226,5.817351918764062,0.0852614437076144
27.25464,5.81828308432384,0.0852556970027637
27.257036,5.8184228539507,0.085247917061587
27.259424,5.820564724323978,0.0852208890187336
27.261808,5.824708695443671,0.0851743144538585
27.264204,5.824848465070531,0.0851664796604096
27.266592,5.835418047310057,0.0850386376360986
27.268972,5.845708090295861,0.0849272790519204
27.271376,5.856277672535386,0.0848010571643427
27.273764,5.871782621827522,0.0846306280753778
27.276144,5.893805730038108,0.0844220204152588
27.27854,5.916899773435332,0.0842020735414855
27.280928,5.944137787952248,0.0839405726662448
27.283312,5.969653240976471,0.0836820104429653
27.285708,5.998753586612946,0.0834086728012152
27.288092,6.027062536316502,0.0831356681366756
27.290472,6.05364892452736,0.0828681619005491
27.292872,6.077953672738085,0.0826355769596931
27.295260000000003,6.102910047254865,0.0824114167573198
27.29764,6.121999889159255,0.0822354213062783
27.300036,6.143091831810062,0.0820434604536716
27.302424,6.161250508154674,0.0818732117074808
27.304804,6.1820629115517605,0.0816952660691153
27.307212,6.203666710881765,0.0815211692376109
27.3096,6.226061906144689,0.0813494263978466
27.31198,6.257117130699336,0.0811175282256894
27.31438,6.280536039320653,0.0809837418310738
27.316768,6.304886113501752,0.0808460899598592
27.319152,6.330539440294965,0.0807289588586616
27.321548,6.359126033394372,0.0805936704790455
27.32394,6.381985863508248,0.0804955767958105
27.326324,6.400841492129293,0.0804308720484797
27.32872,6.41606500630984,0.0804238420154245
27.331108,6.437946449035697,0.0803781518703976
27.333488,6.457174164709078,0.0803393331945377
27.335888,6.47533094519582,0.0803125107472821
27.338272,6.493347956055702,0.0802927851715405
27.340656,6.51443800284864,0.0802460016733586
27.343056,6.538880624828354,0.0801586877654544
27.345444,6.566396282741123,0.080043635844721
27.347824,6.591770070280616,0.0799527075939011
27.35022,6.622870620805638,0.0798276171634323
27.352608,6.652248609837963,0.0797057279622136
27.354992,6.678693332564094,0.0796041115118035
27.357388,6.70835086085014,0.0794708249038559
27.359776,6.728417194284683,0.0793954486102101
27.36216,6.7507651677193605,0.0792903200746319
27.364556,6.772461514847982,0.0791774140821337
27.366948,6.794297631603465,0.0790587457198688
27.369328,6.808125345373279,0.079001525082735
27.371724,6.82409492951637,0.0789224266731905
27.374112,6.845139650338934,0.0788024828758459
27.376492,6.863949952989604,0.0786678991377718
27.378892,6.87423999597541,0.0785791622865851
27.38128,6.887463305267408,0.0784714754948746
27.383664,6.900546844932548,0.0783702722414216
27.38606,6.912187362358711,0.0782577395323901
27.388448,6.917821577545624,0.0781902604402161
27.390832,6.919591360866563,0.0781464823267289
27.393228,6.920150439374004,0.0781201090393666
27.395616,6.919918121948528,0.0780913241885065
27.398,6.918103012657214,0.0780577766738851
27.400396,6.917079299298818,0.0780267216366422
27.402784,6.918988852246619,0.0779770023192124
27.405168,6.915171642208888,0.0779580765448745
27.407564,6.915218864037132,0.0779163828074467
27.409952,6.91247258918604,0.07788685338239
27.412332000000003,6.910517710267867,0.0778598327464098
27.414728,6.905769334670358,0.0778448409640587
27.417116,6.905164930192544,0.0777942105891126
27.419500000000003,6.903769129781811,0.0777411470826315
27.4219,6.898369127878244,0.0777169747531315
27.424288,6.891758421161179,0.0777098576151195
27.426672,6.88701004556367,0.0776947572762327
27.429068,6.8814702740332425,0.0776769672312239
27.43384,6.866526299106417,0.0776641736791483
27.436236,6.860334901269932,0.0776373116586944
27.438624,6.856145604179864,0.0775955627439528
27.441008,6.850513284850821,0.0775419759876865
27.443404,6.840085368096025,0.0775155918942447
27.445796,6.829657451341229,0.0774887652108837
27.448176,6.818577908280376,0.0774524940673226
27.450572,6.806846738913465,0.0774067665181163
27.45296,6.796046735106331,0.0773568467535134
27.455344,6.787668140926195,0.0772723130213013
27.45774,6.780220712305838,0.0771836061052025
27.460132,6.7670465206999495,0.0771252295405895
27.462512,6.755874429840479,0.0770521513857027
27.464908,6.743910943048091,0.0769761409765407
27.467296,6.732878621815479,0.0768958806888293
27.46968,6.724127940583006,0.0767878774872498
27.472076,6.719800769723948,0.0766311144694432
27.474464,6.713890806999053,0.0764680326867612
27.476848,6.702393850915488,0.0763272933455673
27.479244,6.691595742966223,0.076152161709238
27.481632,6.678702986471926,0.0759538840317915
27.484012,6.667952100350905,0.0757335153752685
27.486408,6.651474451244355,0.0755418414157224
27.4888,6.6340656365780255,0.0753526369431955
27.491184,6.623222202658388,0.0750910767012673
27.49358,6.604789674633663,0.0748654636805863
27.495968,6.579838987690492,0.0746651879586345
