Time,Force,Position
28.549684000000003,1.12048907454861,0.1950041428261197
28.552068,1.123934197534003,0.1946620694732543
28.554464,1.1296609605195331,0.1939378455201933
28.556848,1.1332458531317862,0.1935420344393086
28.559228,1.139484472796514,0.1928974691214959
28.561632,1.1491682154466345,0.191890472258435
28.564024,1.1608540588431722,0.190557067647154
28.566404,1.1737506070532084,0.1890097077028888
28.5688,1.1898599608231604,0.1869038297721463
28.571192,1.2038274442198351,0.1852050910363684
28.573572,1.214861661310315,0.1838641788499189
28.575968,1.224545403960435,0.1828130167820013
28.59508,1.2695076190784305,0.182238613756158
28.597476,1.2818431929231566,0.1817577956007721
28.599864,1.2944110841933605,0.1814213276611729
28.602248,1.3073510625159013,0.1811938238632837
28.607032,1.334067741064275,0.1810436727175944
28.609416,1.3499863116633848,0.1809296795080613
28.611812,1.3689306963673071,0.1807065638272191
28.6142,1.391040664802902,0.1803757684114465
28.616584,1.4140345769700318,0.1801846579912406
28.618984,1.4383317417492774,0.1799843774730882
28.621372,1.468076130260333,0.179357629716012
28.623752,1.499123771383504,0.1787027766482275
28.626152,1.5311025780664536,0.1779787730699666
28.62854,1.564384637361519,0.1772816716763545
28.63092,1.6021827548286156,0.1762397397003319
28.63332,1.6466388008410209,0.1746946618271618
28.635708,1.691094846853426,0.1731974693749551
28.638092,1.7380648502914453,0.1716229292757177
28.640488,1.7850348537294651,0.1701479051065594
28.642876,1.8326564834735437,0.1686886018363369
28.645256,1.8787878691504016,0.1676008444808102
28.647652,1.9273406644542577,0.1663342242296922
28.72652,2.4777873809074262,0.1654829235927156
28.728908,2.488540162886316,0.1653809228318652
28.731288000000003,2.50329714635804,0.165083389948114
28.733688,2.5211271657628185,0.1646241254864329
28.736072,2.541099055540874,0.1640379412062702
28.738456,2.561210714945791,0.1634345016453129
28.740852,2.5853265758435406,0.1626096819225731
28.74324,2.604646839315538,0.1620136898896444
28.745624,2.62345524610834,0.1614097250555648
28.74802,2.6397496954755253,0.1608820937947344
28.750408,2.660467655216125,0.1600996484673034
28.752792,2.686260751636198,0.1590815442557387
28.755188,2.7134043224966296,0.1579871170058833
28.75758,2.7421779070511403,0.1567617119596399
28.75996,2.771091261232512,0.1555504661722349
28.76236,2.796000413921049,0.1545205102360584
28.764748,2.822260041049945,0.1534121318133104
28.767136,2.85080130817898,0.1521688735616227
28.769536,2.878830718628815,0.150911657402755
28.771928,2.901784992399178,0.1499128747105238
28.843736,2.8078563606703546,0.1490066023050071
28.848528,2.7968712612659874,0.148989851234723
28.850924000000003,2.796174308989556,0.1487972285107747
28.853324,2.8014836589523746,0.1483472484363161
28.855712,2.804371599288196,0.1480388241266484
28.858108,2.808050935556935,0.1477191727146493
28.860508,2.814383998878149,0.1473222007330533
28.862896000000003,2.8245814940653373,0.1467828491853106
28.865292,2.831705953319469,0.1463808673681715
28.867688,2.837759477386963,0.1460287712837727
28.870076,2.84046042626768,0.1458505550452682
28.87246,2.8467462677606514,0.145567610959061
28.874856,2.854894440373178,0.1452310120849376
28.877244,2.8649049441052634,0.1448379233932613
28.879628,2.8777089445166824,0.1443513517403483
28.882032,2.89130434086102,0.143862830289691
28.884416,2.906482529071193,0.1433489395170583
28.886796,2.9192393076543697,0.1429633405006328
28.889196,2.93451004366316,0.1425207983060925
28.891584,2.9522947370975654,0.1420338728576768
28.893968,2.9663547682928573,0.1416719754818805
28.896364,2.9864211017274,0.1410681222428059
28.898752,3.004345564788666,0.1405748878705319
28.901136,3.0199883878497937,0.1402063740152935
28.934592,3.134081588385384,0.1397025213300126
28.939372,3.149070889282585,0.1396120125634513
28.94176,3.155634374171408,0.1395929682154296
28.944144,3.1652708949932853,0.1394711609343156
28.953708,3.189290416376679,0.1394245334475184
28.956096,3.1959936708923617,0.1393930329748408
28.958476,3.2084236883935744,0.1391874803252185
28.960876000000003,3.222855806641204,0.1389112615498962
28.963264,3.236496528955915,0.1386439897836002
28.965644,3.2510684168304045,0.1383526677196912
28.96804,3.2672230965707305,0.1380404927482728
28.970432,3.286031503363531,0.137660621302524
29.006284,3.4261916519993063,0.1372766483552299
29.008664,3.431871193156593,0.137204470724998
29.011064,3.4401119135677383,0.1370118719713267
29.013452,3.449563338792382,0.1367704854697387
29.015836,3.458782446591548,0.1364782764906386
29.018232,3.4665585321517387,0.1361855774972808
29.020624,3.4716808906594547,0.1359441632090971
29.023008,3.4754999965550537,0.1356896613753384
29.025404,3.477876080211678,0.135433654657002
29.027792,3.4846756742417155,0.1350122076520317
29.030176,3.496690174578086,0.1344195530151107
29.032576,3.506050947861981,0.1338698538335551
29.034964,3.5088935622274287,0.1334833368368689
29.037344,3.51043292398076,0.1330817665238116
29.039744,3.515464630547728,0.1325300904573827
29.042132,3.519565171554916,0.1320041404057917
29.044516,3.526598978868301,0.131392282085712
29.046916,3.533632786181685,0.1307857356297636
29.049304,3.540014967189012,0.1301706027201244
29.051684,3.5434638818901427,0.1296384299750094
29.054080000000003,3.546773026964414,0.1291263941598708
29.056472,3.5465898272250493,0.1287576167004166
29.058852,3.54212288673913,0.1285359965733555
29.061252,3.5335119751335173,0.1284457598585516
29.06364,3.524621524274184,0.1283839189814526
29.06602,3.516802008601489,0.1282850523040569
29.06842,3.513266233675348,0.128040630582382
29.070808,3.5117325594956244,0.1277405106082562
29.073188,3.5119214468085973,0.1274120508496581
29.075588,3.5068954278152376,0.1272465709658673
29.07798,3.4970738113961257,0.1271988513440687
29.08036,3.494841289082101,0.126971061972387
29.08276,3.4935399323278538,0.1267199091231355
29.085152,3.49130741001383,0.1264882876100521
29.087532,3.4890748876998043,0.1262566555885181
29.08994,3.4840488687064446,0.1260870885945641
29.092328,3.4800937848997235,0.1258820101074046
29.094712,3.4762784707198624,0.1256626061292736
29.097108,3.474325487659558,0.1254026199644835
29.099500000000003,3.475585310159169,0.1250381670479421
29.101884,3.4756344278452813,0.124724114444782
29.10428,3.478104955158391,0.1243126344174134
29.106672,3.486861323964472,0.1237167429921516
29.109052,3.496968167210912,0.1230519656200618
29.111452,3.5082857152708504,0.1223438689681578
29.113844,3.5206741985174275,0.1216084554511224
29.116228,3.5284994017637303,0.1210365244281164
29.118628,3.530318302770783,0.120619293012204
29.121016,3.5332081389644734,0.1201709636534686
29.1234,3.540661255158439,0.1195600961453714
29.125796,3.550256241725681,0.1188809683158046
29.128188,3.554124465307393,0.1183334123827598
29.130568,3.564790387061273,0.1176379159988193
29.132968,3.579180971054267,0.1168735066833191
29.135356,3.594502720607039,0.116097505618223
29.137736,3.6108954053464495,0.1152780399733866
29.140136,3.619698995980773,0.11460973307278
29.142524,3.6267800251224007,0.1139661513945225
29.144908,3.6330696583311104,0.113330754619492
29.147308,3.636006716353044,0.11280435904388
29.149696,3.6375007521360017,0.1122684042735315
29.15208,3.640065723105598,0.1117078151129965
29.154476,3.6343427518358062,0.11136600303324
29.156864,3.629550946125793,0.1110065632714826
29.159248,3.621546334855864,0.1107378785394152
29.161648,3.611539622839519,0.1105148351950056
29.164036,3.602231758957473,0.1102208170399238
29.16642,3.5950657654487057,0.1098614462925524
29.168816,3.58710837600702,0.1095045943666476
29.171204,3.576589807311477,0.1092506748742749
29.173588,3.564860533802434,0.1090400697685078
29.176004,3.554993591412949,0.1087954434386068
29.178392,3.537397785291516,0.1087083588500043
29.18078,3.5199417487969438,0.1086018923266631
29.183188,3.499272906742456,0.1085843703421471
29.18558,3.482188957300221,0.1085155937338428
29.187964,3.4744166634557696,0.1082894665036494
29.190368,3.463152024797682,0.1081806459167582
29.192752,3.4514680772590136,0.1081128090669901
29.195136,3.439923899347205,0.1080317298675343
29.19754,3.4341064844209277,0.107838212511598
29.199924,3.424005328748095,0.1077625757421951
29.202308,3.417908374568097,0.1075957844541745
29.204704,3.4128823555747365,0.1073985354367826
29.207092,3.4140024084474883,0.1070537633880085
29.209468,3.4156343179994364,0.106734812364084
29.211872,3.41991995460386,0.1063841923018458
29.21426,3.429932354193814,0.1059341535573119
29.21664,3.43752334415677,0.1055676235075179
29.21904,3.446976665239282,0.1051711537203757
29.221424000000003,3.458152547814491,0.104759232548628
29.223808,3.4685370344567827,0.1043485485333593
29.226204,3.4835773488979647,0.1038628863584634
29.228592000000003,3.495265088152372,0.103480536217161
29.230972,3.509094697780056,0.1030374093235809
29.233372,3.522132911474822,0.1026024427068881
29.235756,3.5317260021841945,0.1022058708579842
29.23814,3.550677970319594,0.101592309331649
29.240536,3.570840643268492,0.1009421309456628
29.242924,3.59673007920292,0.1002044904990908
29.245304,3.613400407338182,0.099669432207844
29.2477,3.630210505100304,0.0991135445187033
29.250092,3.645158271742869,0.0985827997399327
29.252472,3.658615794318216,0.098123301329551
29.254868,3.666858410587229,0.0977910775009109
29.257256,3.678453602043019,0.097371551677268
29.259636,3.690979959058587,0.0969461361455337
29.262032,3.6993623449544617,0.0966159638125127
29.26442,3.712819867529809,0.0961881986798894
29.266804,3.728698799732152,0.0956946469653648
29.2692,3.7428551704417994,0.0952126779210445
29.271588,3.7616673689503375,0.0946808351026043
29.273968,3.776754905219764,0.0941962084774264
29.276364,3.793332685556409,0.0936498845789955
29.278752,3.811400709960273,0.0930490047703343
29.281136,3.829468734364138,0.0924552939621066
29.283532,3.846326053954503,0.0918982702739946
29.28592,3.855035200932339,0.0914933598393692
29.288304,3.860950851230842,0.0911199717560546
29.2907,3.863281608917092,0.0907802488448511
29.293088,3.874551935148788,0.0903011918463406
29.295468,3.886473887686541,0.0898318318533753
29.297872,3.903470976903767,0.0892802130007397
29.30026,3.919956209441794,0.0887013225463002
29.30264,3.9365812116066823,0.0881073321240814
29.305036,3.94733968115918,0.0876004545066184
29.307424,3.956096049965261,0.0871296278842776
29.309808,3.965271727651922,0.0866241695156567
29.312204,3.969651807912833,0.0861809165449951
29.314588,3.96923629074799,0.0857986542104557
29.316968,3.970962643956425,0.085375188209487
29.319372,3.965891298992692,0.0850392745721524
29.32176,3.9597490188423192,0.0847208964836358
29.324144,3.952535803505308,0.0844224078926983
29.32654,3.9435528048473576,0.0842037240733918
29.328928,3.935640741376046,0.0839648122380285
29.331312,3.9277286779047342,0.083724808872834
29.333708,3.923681046299396,0.0834375698468995
29.336096,3.923497846560031,0.0831045757516306
29.338476,3.920101841260751,0.0828304773309591
29.340872,3.911258612229661,0.0825954161910857
29.34326,3.906699123945124,0.0822817722926008
29.345644,3.898647290846952,0.0820512762201742
29.348048,3.895670594428253,0.0817487548063701
29.350436,3.8909713365168552,0.0814475661796259
29.352816,3.8892053449116544,0.0811098536369113
29.35522,3.888789827746813,0.0807313925367847
29.357608000000003,3.887023836141611,0.0803942243858367
29.359988,3.8883308804694656,0.0800115410048823
29.362384,3.890010011849657,0.0796650769423467
29.364776000000003,3.891689143229849,0.0793213336242577
29.367156,3.8957896842370383,0.0789144651577409
29.369556,3.9060362971103375,0.0784200541422606
29.371944000000003,3.916934536289696,0.0779411190623522
29.374328,3.929183249909413,0.0774225521160145
29.376724,3.9382191579692143,0.0769620556822314
29.379112000000003,3.9493969364022927,0.0764668890385059
29.381492,3.9597833189024527,0.0759699328618643
29.383888,3.9689589965891146,0.075507710611811
29.386276,3.982930271701528,0.0750009801988503
29.38866,3.9994155042395554,0.0744982765652623
29.391056000000003,4.013107240098249,0.0740221669955641
29.393444,4.026287119277743,0.0735181026699848
29.395824,4.03103928659099,0.0731416504226851
29.398224000000003,4.041518216889767,0.0727200585867898
29.400612,4.054139017561823,0.0722699672592031
29.402996,4.063407243047102,0.0718812908937277
29.405392000000003,4.075888274092296,0.0714455580189568
29.40778,4.089440240324128,0.0710005966788909
29.41016,4.10434268099632,0.0705173073834243
29.412560000000003,4.1180344168550125,0.070064142948494
29.414948,4.135171275699098,0.0696178749185141
29.417328,4.150957660102825,0.0692166296015366
29.419728000000003,4.167023583760272,0.0687955069219568
29.422116,4.18215834185794,0.0683821912034177
29.424496,4.19757263920933,0.0679468428833451
29.426896,4.21177623174722,0.0675399323690258
29.429284,4.224117493165554,0.06714155727247
29.431664,4.232734092344775,0.0667593044802737
29.434064,4.240559295591078,0.0663747017046172
29.436452,4.247593102904463,0.0659857645796795
29.438836,4.253555975031208,0.0656116660422903
29.441232,4.259518847157954,0.0652368805342337
29.443624,4.272698726337449,0.064782353679451
29.446004,4.279732533650835,0.0643933253053321
29.4484,4.285415866523859,0.0640428457403227
29.450792,4.293101300143301,0.0636733316825574
29.453172,4.297853467456549,0.0633271047905929
29.455568,4.300323994769658,0.0630207208423847
29.457956,4.301723586896129,0.0627275726305513
29.460336,4.304194114209239,0.0624221405348299
29.462732,4.301729274469737,0.0621537199347123
29.46512,4.296750477304621,0.0618752620261892
29.4675,4.292702845699282,0.0615943000856256
29.4699,4.286792882974388,0.0613179800243451
29.472288,4.282885020995909,0.0610259236410095
29.474668,4.281119029390709,0.0607100309534583
29.477072,4.280144433718425,0.0603995412904614
29.47946,4.283174039538976,0.060057803754217
29.48184,4.286343414986387,0.0597086374349962
29.48424,4.286579524127602,0.059374895498162
29.486628,4.289609129948154,0.0590353209639273
29.489008,4.293569901328483,0.0586934486088705
29.491408,4.291803909723281,0.0583752634944583
29.493796,4.294181889237775,0.0580177037523282
29.496176,4.2926954368862935,0.0576771624426067
