Time,Force,Position
28.706584,1.5434105250021686,0.1666483513737788
28.892944,1.8392412845209785,0.1666338390478303
28.895324,1.834819670005433,0.1665755415540352
28.897728,1.8341227177290007,0.1662945224918321
28.900116,1.8354278661989865,0.1658656149842462
28.902496,1.8343116050419737,0.1656745473419313
28.904892,1.835057675004518,0.1653672536458026
28.90728,1.839807946459896,0.164757295501105
28.90966,1.848702189034968,0.1638337678204849
28.91206,1.8503794245572904,0.1634690962064766
28.914444,1.8512180423184517,0.1632890625968057
28.916828,1.853871769370926,0.1631502417338232
28.919224,1.8636952816479069,0.1626308612681939
28.921612,1.873611341723505,0.1622383310256733
28.923992,1.890557417396749,0.1615280018512534
28.926392,1.9046627745624145,0.1611344847753051
28.928776,1.924866981765948,0.1604813549203745
28.931172,1.948516311954874,0.1596702509251104
28.933572,1.9697442325168024,0.1590629511737684
28.93596,1.993625880131207,0.1583240971823533
28.93834,2.024025686664059,0.1572652838692072
28.940736,2.0549373498761083,0.1562941121921714
28.943124,2.082216898647661,0.1556636503295848
28.945508,2.112010404844829,0.154982790510292
28.947904,2.143107163654113,0.154316125206039
28.950292,2.1779285847025096,0.1534899236335929
28.952676,2.2191283950424943,0.1524518963076272
28.955072,2.26456472430079,0.1513433858170379
28.95746,2.3060893998648697,0.1505658925614633
28.959844,2.3542720039742573,0.1494491422073104
28.96224,2.4033857736434228,0.1482956090636157
28.964628,2.4524995433125887,0.1471497094655405
28.967008,2.4957467803693643,0.1463224091403427
28.969404,2.5388542477992795,0.1455068476086822
28.971792,2.576886578549723,0.1449955177778556
28.974172,2.6199940459796385,0.1442514351237293
29.017196,3.037435406777071,0.1438942082489463
29.0196,3.053727960286388,0.143797774635143
29.021988,3.06778609562381,0.143728193761096
29.024368,3.087478446148145,0.1434039968622547
29.026764,3.106938479247004,0.1430284402532159
29.029152,3.121370597494633,0.1427534744446117
29.031532,3.133428527943509,0.1425108864859633
29.033928,3.146045536899824,0.1421929773180575
29.036316,3.154565796564689,0.141937149132623
29.0387,3.165507465856552,0.1415621566445175
29.041096,3.1732835514167426,0.1412258570020412
29.043484,3.178685449178177,0.1409202664663317
29.045868,3.1887903965667483,0.1403868084466663
29.048264,3.202667228022676,0.1396367286211312
29.050648,3.2197568650385184,0.1387376456818934
29.053032,3.2344723142556067,0.137878686855617
29.055428,3.248675906793497,0.1369849027720168
29.057815999999995,3.2578515844801585,0.136192617047216
29.0602,3.263721908808288,0.1354622019548687
29.062596,3.2653557142181056,0.1348306933862288
29.064983999999995,3.2596799647765566,0.1343946317883381
29.067368,3.252141884215452,0.1340104077626276
29.06976,3.238597501415096,0.1338330716999286
29.074532,3.2017777713360203,0.1337742163997317
29.076928,3.1835775607367736,0.1337139439507541
29.079316,3.1657966590181066,0.1335990107052904
29.0817,3.149226462112939,0.1334249454154871
29.084096,3.1377314018872435,0.133072271655859
29.086484,3.125305176101769,0.1327415422448797
29.088864,3.1147412814358524,0.1323596686407568
29.09126,3.104456926023655,0.1319414846805983
29.093648,3.092170469865041,0.1315864592521758
29.096032,3.083888215199261,0.1311014354018938
29.098428,3.0732317727347263,0.1306340644230532
29.100816,3.0627150998970523,0.1301465829560538
29.155776,2.5080354816228234,0.129751100527923
29.158164,2.4941643377405045,0.1296277962427235
29.160548,2.487602748709551,0.1293111194160825
29.162948,2.4827637211712945,0.1289580941410444
29.165332,2.4752237447523204,0.1287733738722511
29.167716,2.4701977257589607,0.1285453897805819
29.170112,2.4693156778852954,0.1281490863462502
29.1725,2.470295961131186,0.1276920866312632
29.17488,2.475932072175968,0.1270896198038029
29.17728,2.478634916914555,0.1265860028153028
29.179664,2.484922654265395,0.1259769724194178
29.182044,2.489720147549016,0.1254748440146932
29.184448,2.492096231205639,0.1251110228704408
29.186836,2.49633464598182,0.1246815290537321
29.18922,2.5038784141165324,0.1241950380091161
29.191616,2.512353347811024,0.1236827564936937
29.194008,2.518406871878517,0.1233269537071238
29.196392,2.5273936622522064,0.1228524288650616
29.198788,2.5389416318797533,0.1222121982409377
29.201176,2.545134925574107,0.1218361725081173
29.20356,2.549837975201242,0.1215787247823722
29.20596,2.5508163625892637,0.121439014908076
29.208348,2.5485819444173687,0.1214381066422697
29.210728,2.549792649230868,0.1213740644821776
29.213124,2.5568698866567567,0.1211177364531508
29.215512,2.564738520015564,0.1208609478341007
29.217892,2.5717685356132103,0.1207224539486293
29.220288,2.5826629830768293,0.1204717414334009
29.222676,2.594069287219647,0.1202576556291223
29.22506,2.614135620654189,0.1198052615835537
29.227456,2.636995450768067,0.1192937799013637
29.229844,2.664371339053976,0.118683484465201
29.232228,2.70026748700475,0.1178586874916348
29.234624,2.7418903979410536,0.1169172341888033
29.237012,2.7832337696236373,0.1160300081071924
29.239396,2.82401806279878,0.1152190523853233
29.241804,2.8657335215337008,0.114397606260443
29.244192,2.911033872880875,0.1135278947827196
29.246576,2.9533537360936104,0.1128324507777296
29.248972,3.0007487359858187,0.1119935331783974
29.25136,3.051077002184222,0.1111018384210891
29.253744,3.101777355434963,0.1102747198652972
29.25614,3.153548643872342,0.1094252788554742
29.258532,3.200524334883969,0.108688566396773
29.260912,3.24549792514918,0.1080243179930907
29.263312,3.2914026809741688,0.1073644036501614
29.2657,3.3395890767992946,0.1066362478549865
29.26808,3.387635702997561,0.1059543407463573
29.27048,3.4359618684495468,0.1052548821290909
29.272872,3.480144062781839,0.1047027806705357
29.275252,3.524326257114131,0.1041719994052911
29.277648,3.5689277603270044,0.1036170076801654
29.280036,3.608873435740986,0.1031592735671846
29.282416,3.6430923481694375,0.1028181957834691
29.284816,3.675868238358913,0.1024678513562778
29.287204,3.707201106309413,0.1021013909136935
29.289584,3.735600707953716,0.1017888778752129
29.29198,3.7674926544116567,0.1013951823558474
29.294368,3.80515858568337,0.1008361185280988
29.296748,3.838168689156192,0.1003528416985313
29.299148,3.8648004033374255,0.0999498581477915
29.301536,3.888126764160127,0.0995588425654133
29.303916,3.9106617290499104,0.099173830322417
29.30632,3.939342765805804,0.0986676706034151
29.308708,3.969374277002056,0.0981195217685037
29.311088,3.994749960399418,0.0976346049438044
29.313488,4.0161214423039455,0.0972261228575352
29.315872,4.033908031596219,0.0968567977717508
29.318252,4.04918066346288,0.0965010477871776
29.320651999999995,4.061008172344147,0.0961677300987552
29.323036,4.068319623053382,0.0958816717455523
29.32542,4.070044080403948,0.095664942498253
29.327816,4.069114810702039,0.0954701146324154
29.330204,4.067394145067212,0.0952743121782085
29.332584,4.070888385738717,0.0949781353421855
29.33498,4.07680403603722,0.0946136813255696
29.337368,4.0846292392835215,0.0941554386664897
29.339748,4.078719276558627,0.0939080895682382
29.342144,4.06815348603484,0.0937135292528592
29.344532,4.058658630697692,0.0934960491124607
29.346912,4.051957272039878,0.0932460429405604
29.349312,4.047118244501623,0.0929740296416881
29.351696,4.040696425097529,0.0926990585198418
29.35408,4.030969252334904,0.0924304565413352
29.356476,4.021661388452859,0.0921279053521064
29.358864,4.013703999011174,0.0917794729974814
29.361244,4.006305688076928,0.0913835946883819
29.36364,3.9982557508366265,0.090971738535969
29.366028,3.993278849529379,0.0905088690351125
29.368412,3.988581487475852,0.0900191207246774
29.370808,3.983232499116268,0.0895105623285478
29.3732,3.981096316316598,0.0889349820184127
29.37558,3.9792396727706496,0.0883310599185837
29.377976,3.975660467732004,0.0877295447120185
29.380364,3.961279363028357,0.087279962699395
29.382748,3.943964992018514,0.0868676537301922
29.385144,3.92651085138181,0.0864637712524657
29.387532,3.9170651137307737,0.0859336400526218
29.389928,3.907479606452878,0.0854128941760333
29.392324,3.897242472868924,0.0848755408203433
29.394712,3.885562317045994,0.08431736008587
29.397092,3.869366103051033,0.0837864596383579
29.399488,3.850096853123016,0.0833016687550387
29.401876,3.824541761702029,0.0829280569138966
29.40426,3.791909432855152,0.0826639416558352
29.406656,3.759277104008276,0.0823940251645532
29.409044,3.7289264151615367,0.0820600018766119
29.411424,3.699367122247715,0.0817248628751816
29.413824,3.663941296721504,0.081461038829507
29.416212,3.6293068671282094,0.0811961060400189
29.418592,3.600259430893587,0.0808743208781447
29.420992,3.572003390591881,0.080550986285111
29.42338,3.5445387462230937,0.0802272946123824
29.42576,3.518936432973863,0.0798832893320824
29.42816,3.4989211130833024,0.079486454910888
29.430548,3.479417649871939,0.07911644970059
29.432928,3.4576325466604385,0.078797514167432
29.435328,3.4329141771427434,0.0785118477633282
29.437716,3.4074044116921294,0.0782166432379524
29.440096,3.379333466987658,0.0779995527492804
29.442496,3.353636710081941,0.07779310791345
29.444884,3.332595780975116,0.0775433887891572
29.447268,3.316070910040322,0.0772653987499714
29.449664,3.3083458380241137,0.0768720173978038
29.452052,3.306347528993435,0.0764121946327258
29.454432,3.303790141455316,0.0760042229724377
29.456832,3.29732110022298,0.0757277663997027
29.45922,3.2908520589906445,0.0754494739332543
29.461604,3.2859658096241446,0.0751783181425223
29.464,3.2838730569369794,0.074883592445354
29.466388,3.2777761027569823,0.0746485150870174
29.468768,3.2706082133903456,0.074434126172922
29.471164,3.2640919503297656,0.0742384730032872
29.473552,3.260229414321662,0.0740343645950968
29.475936,3.257298043873336,0.0738234776014052
29.478332,3.25436667342501,0.0736115309999442
29.48072,3.2540890300291587,0.0733908458767644
29.483104,3.254463012939365,0.073188333134628
29.4855,3.256140248461688,0.0730248316149957
29.487888,3.259819584730426,0.0728303777992928
29.490272,3.264849395439524,0.072591007834166
29.492668,3.2716017676413194,0.0723537488718361
29.495056,3.276771347977278,0.0721040141577593
29.49744,3.2796592883131,0.0719114698885625
29.499836,3.2821279197683406,0.0717598882211924
29.502224,3.28566748641022,0.0715878857364679
29.504608,3.2904177578655966,0.0713802636074648
29.507012,3.297681986746589,0.0711806484379411
29.5094,3.3126750793595288,0.0709067505643445
29.51178,3.324455366412552,0.0706930777088226
29.51418,3.335024948652077,0.0705098575417251
29.516568,3.3441042868243835,0.0703854605042109
29.518952,3.355465264996827,0.0702112834880823
29.521348,3.362030645743519,0.0700815308977482
29.52374,3.366733695370653,0.0699647874883565
29.526124,3.3746495505577045,0.069791776352485
29.52852,3.3839158801851137,0.0695770744037073
29.530908,3.3973261809322164,0.0693038910840634
29.533284,3.41087625130618,0.0690172335694732
29.535692,3.430432623919394,0.0686650778098654
29.538076,3.4484987524653885,0.068375588423908
29.540456,3.4667046506382437,0.0680800994925758
29.542852,3.486912649557515,0.0677661758044782
29.545236,3.5063292525438685,0.0674467690621737
29.54762,3.5264447036645232,0.0670709439713136
29.550016,3.5488417947853157,0.066654518296036
29.552404,3.5773849577722183,0.0661725969817934
29.554784,3.6052764944530633,0.0656782093704498
29.55718,3.6255789370288234,0.0652379448160315
29.559568,3.649233954791356,0.0647420101290256
29.561948,3.68010597960664,0.0641679823146869
29.564344,3.7143305796086983,0.0635375254617539
29.566732,3.747484244424119,0.0629343336272789
29.569112,3.7866442114787904,0.0622780657633748
29.571512,3.827806279279879,0.0616071948462233
29.5739,3.867757642267468,0.0609743778579302
29.576296,3.900491998202307,0.0604184699699269
29.578692,3.930153318204092,0.0599042667052906
29.58108,3.960233947086458,0.0593597306841486
29.58346,3.984587812983292,0.0588552641524739
29.585856,4.005217016641014,0.0583597323058392
29.588244,4.025846220298735,0.0578725204487159
29.590624,4.046987280635655,0.0574210751146513
29.59302,4.0671971754127965,0.0569724842105283
29.595408,4.082983559816523,0.0565876830385091
29.597788,4.092763641981,0.0562494948294318
29.600188,4.092672990040251,0.0559786109833215
29.602572,4.088717906233529,0.055726246575995
